comp(1),comp_corrected(1),raman_shift(1),vidro(ex 350 5-5),plastico(ex 350 5-5),comp(2),comp_corrected(2),raman_shift(2),vidro(ex 400 5-5),plastico(ex 400 5-5),comp(3),comp_corrected(3),raman_shift(3),vidro(ex 450 10-10),plastico(ex 450 10-10),comp(4),comp_corrected(4),raman_shift(4),vidro(ex 500 10-10),plastico(ex 500 10-10)
339,350,0,97.2373,689.7720,389,400,0,160.6376,573.0379,439,450,0,232.6589,999.999,489,500,0,95.0055,638.6647
339.5,350.5,40.75810067,98.6829,711.2977,389.5,400.5,31.21098627,155.4388,554.3844,439.5,450.5,24.66395363,236.7248,999.999,489.5,500.5,19.98001998,95.6414,652.191
340,351,81.4000814,97.9502,706.2628,390,401,62.34413965,146.7455,523.5177,440,451,49.27322,239.439,999.999,490,501,39.92015968,95.6439,661.3013
340.5,351.5,121.9264377,93.5444,674.4640,390.5,401.5,93.39975093,135.1259,481.4519,440.5,451.5,73.8279808,240.3277,999.999,490.5,501.5,59.82053838,94.9309,665.5814
341,352,162.3376623,86.4997,631.3511,391,402,124.3781095,120.9791,431.4435,441,452,98.32841691,239.2257,999.999,491,502,79.6812749,93.5399,664.9199
341.5,352.5,202.6342452,78.2989,574.4030,391.5,402.5,155.2795031,106.0748,378.0076,441.5,452.5,122.7747084,237.2118,999.999,491.5,502.5,99.50248756,91.5053,659.6066
342,353,242.8166734,69.0635,506.5109,392,403,186.1042184,89.4345,319.8579,442,453,147.1670346,233.4635,999.999,492,503,119.2842942,88.8758,649.6213
342.5,353.5,282.8854314,59.4638,434.2555,392.5,403.5,216.8525403,73.8336,263.2648,442.5,453.5,171.5055739,227.9796,999.999,492.5,503.5,139.0268123,85.7123,635.1823
343,354,322.8410008,49.5161,361.3460,393,404,247.5247525,59.282,209.7834,443,454,195.7905042,221.1162,999.999,493,504,158.7301587,82.0256,616.681
343.5,354.5,362.6838606,40.3015,294.7466,393.5,404.5,278.1211372,45.7887,164.3879,443.5,454.5,220.0220022,212.9514,999.999,493.5,504.5,178.39445,77.945,594.2302
344,355,402.4144869,31.9692,235.7248,394,405,308.6419753,34.0607,124.0629,444,455,244.2002442,203.4126,999.999,494,505,198.019802,73.509,568.2622
344.5,355.5,442.0333534,25.1993,187.4992,394.5,405.5,339.0875462,23.8019,87.0613,444.5,455.5,268.3254055,192.8444,988.763,494.5,505.5,217.6063304,68.8057,539.4419
345,356,481.540931,19.0088,140.2252,395,406,369.4581281,16.3748,60.135,445,456,292.3976608,181.7813,966.5122,495,506,237.1541502,63.9189,507.9537
345.5,356.5,520.9376878,13.2649,98.7242,395.5,406.5,399.7539975,10.9624,39.9064,445.5,456.5,316.4171839,170.2048,936.1017,495.5,506.5,256.6633761,58.9406,474.4366
346,357,560.2240896,8.8102,67.3424,396,407,429.97543,7.2406,26.3046,446,457,340.3841478,157.6821,897.2839,496,507,276.1341223,53.9129,439.2784
346.5,357.5,599.4005994,5.5424,44.9321,396.5,407.5,460.1226994,4.572,16.5489,446.5,457.5,364.298725,145.2535,852.5794,496.5,507.5,295.5665025,48.934,403.1889
347,358,638.4676776,3.2261,26.4016,397,408,490.1960784,2.3417,8.1273,447,458,388.1610869,132.6276,800.6932,497,508,314.9606299,44.0316,366.9912
347.5,358.5,677.425782,1.8266,14.2897,397.5,408.5,520.1958384,1.3714,4.1816,447.5,458.5,411.9714043,120.0319,743.1951,497.5,508.5,334.3166175,39.274,331.0155
348,359,716.2753681,1.0345,6.9040,398,409,550.1222494,0.8522,1.9188,448,459,435.7298475,107.6427,680.1821,498,509,353.6345776,34.7077,295.7157
348.5,359.5,755.0168885,0.7241,3.8023,398.5,409.5,579.97558,0.6057,1.4707,448.5,459.5,459.4365857,96.0941,614.6653,498.5,509.5,372.9146222,30.357,261.6831
349,360,793.6507937,0.6151,2.1514,399,410,609.7560976,0.583,1.4265,449,460,483.0917874,85.0612,547.7076,499,510,392.1568627,26.2792,229.0294
349.5,360.5,832.1775312,0.6501,1.8872,399.5,410.5,639.4640682,0.5234,1.2829,449.5,460.5,506.6956207,74.3999,480.5275,499.5,510.5,411.3614104,22.5304,198.4217
350,361,870.5975465,0.6457,2.1679,400,411,669.0997567,0.5373,1.3431,450,461,530.2482526,64.7376,416.5386,500,511,430.5283757,19.1433,170
350.5,361.5,908.9112824,0.6895,2.2399,400.5,411.5,698.6634265,0.5375,1.328,450.5,461.5,553.7498495,55.6664,357.2187,500.5,511.5,449.657869,16.0456,143.81
351,362,947.1191792,0.7320,2.2285,401,412,728.1553398,0.5782,1.4005,451,462,577.2005772,47.7368,305.5131,501,512,468.75,13.2839,120.0407
351.5,362.5,985.2216749,0.7257,2.1398,401.5,412.5,757.5757576,0.5885,1.3746,451.5,462.5,600.6006006,40.7229,260.2584,501.5,512.5,487.804878,10.8519,98.7777
352,363,1023.219205,0.7407,2.0995,402,413,786.9249395,0.5959,1.4209,452,463,623.950084,33.968,217.4979,502,513,506.8226121,8.7491,79.9857
352.5,363.5,1061.112203,0.7400,2.0525,402.5,413.5,816.2031439,0.5996,1.5208,452.5,463.5,647.2491909,27.9054,178.4917,502.5,513.5,525.8033106,6.9296,63.8382
353,364,1098.901099,0.7268,2.0665,403,414,845.410628,0.5962,1.5839,453,464,670.4980843,22.5698,145.1656,503,514,544.7470817,5.3882,49.9787
353.5,364.5,1136.586322,0.7148,2.0413,403.5,414.5,874.5476478,0.5546,1.6373,453.5,464.5,693.6969262,18.2442,117.8542,503.5,514.5,563.654033,4.114,38.2913
354,365,1174.168297,0.7282,2.0675,404,415,903.6144578,0.5185,1.6856,454,465,716.8458781,14.3767,93.0177,504,515,582.5242718,3.0798,28.6725
354.5,365.5,1211.64745,0.7298,2.0925,404.5,415.5,932.6113117,0.5035,1.455,454.5,465.5,739.9451008,11.278,72.7061,504.5,515.5,601.3579049,2.2686,20.9839
355,366,1249.0242,0.6541,2.0845,405,416,961.5384615,0.4858,1.35,455,466,762.9947544,8.7803,56.2959,505,516,620.1550388,1.6312,14.8595
355.5,366.5,1286.298967,0.6125,2.0969,405.5,416.5,990.3961585,0.4845,1.2879,455.5,466.5,785.9949982,6.5336,41.9047,505.5,516.5,638.9157793,1.1456,10.2073
356,367,1323.472168,0.6065,2.0100,406,417,1019.184652,0.5188,1.2773,456,467,808.945991,4.9151,30.5656,506,517,657.6402321,0.7875,6.682
356.5,367.5,1360.544218,0.5587,1.9403,406.5,417.5,1047.904192,0.529,1.2546,456.5,467.5,831.8478907,3.7482,22.8389,506.5,517.5,676.3285024,0.5422,4.2255
357,368,1397.515528,0.5358,1.7915,407,418,1076.555024,0.5312,1.2022,457,468,854.7008547,2.7265,15.9748,507,518,694.980695,0.3703,2.5887
357.5,368.5,1434.386509,0.5302,1.7444,407.5,418.5,1105.137395,0.5217,1.2082,457.5,468.5,877.5050397,2.0003,11.0412,507.5,518.5,713.5969142,0.2695,1.5198
358,369,1471.157569,0.5493,1.7629,408,419,1133.651551,0.5499,1.1471,458,469,900.2606018,1.3832,7.0631,508,519,732.177264,0.2046,0.8878
358.5,369.5,1507.829113,0.5855,1.7224,408.5,419.5,1162.097735,0.5056,1.1464,458.5,469.5,922.9676961,1.1162,5.0761,508.5,519.5,750.7218479,0.1741,0.5965
359,370,1544.401544,0.6613,1.7273,409,420,1190.47619,0.4673,1.1207,459,470,945.6264775,0.8806,3.3898,509,520,769.2307692,0.1733,0.5389
359.5,370.5,1580.875265,0.6901,1.8837,409.5,420.5,1218.787158,0.4686,1.1225,459.5,470.5,968.2371,0.6608,2.0637,509.5,520.5,787.7041306,0.1843,0.6244
360,371,1617.250674,0.6634,1.8692,410,421,1247.030879,0.431,1.1222,460,471,990.7997169,0.6463,1.9089,510,521,806.1420345,0.1993,0.7443
360.5,371.5,1653.528168,0.6839,1.8967,410.5,421.5,1275.207592,0.4257,1.2506,460.5,471.5,1013.314481,0.5976,1.5901,510.5,521.5,824.5445829,0.2172,0.8769
361,372,1689.708141,0.6944,1.8860,411,422,1303.317536,0.4022,1.3015,461,472,1035.781544,0.6169,1.7442,511,522,842.9118774,0.2351,0.9922
361.5,372.5,1725.790988,0.6551,1.8431,411.5,422.5,1331.360947,0.381,1.2314,461.5,472.5,1058.201058,0.6561,1.962,511.5,522.5,861.2440191,0.2499,1.0867
362,373,1761.777097,0.6501,1.7463,412,423,1359.338061,0.3683,1.1154,462,473,1080.573174,0.6736,2.131,512,523,879.541109,0.2584,1.1466
362.5,373.5,1797.666858,0.6587,1.8066,412.5,423.5,1387.249115,0.3941,1.0855,462.5,473.5,1102.898041,0.6912,2.2765,512.5,523.5,897.8032474,0.2613,1.1694
363,374,1833.460657,0.6775,1.8728,413,424,1415.09434,0.4669,1.0867,463,474,1125.175809,0.6919,2.3863,513,524,916.0305344,0.2608,1.1714
363.5,374.5,1869.158879,0.6916,1.8505,413.5,424.5,1442.873969,0.505,1.087,463.5,474.5,1147.406627,0.7133,2.4764,513.5,524.5,934.2230696,0.2579,1.1681
364,375,1904.761905,0.7285,1.8657,414,425,1470.588235,0.5308,1.1192,464,475,1169.590643,0.723,2.5069,514,525,952.3809524,0.2558,1.1587
364.5,375.5,1940.270116,0.7608,1.9539,414.5,425.5,1498.237368,0.5804,1.2308,464.5,475.5,1191.728006,0.717,2.4659,514.5,525.5,970.5042816,0.2541,1.1426
365,376,1975.683891,0.7252,1.9018,415,426,1525.821596,0.6059,1.1929,465,476,1213.818861,0.72,2.4579,515,526,988.5931559,0.2531,1.1263
365.5,376.5,2011.003605,0.6883,1.8569,415.5,426.5,1553.341149,0.6004,1.1484,465.5,476.5,1235.863355,0.701,2.4201,515.5,526.5,1006.647673,0.2508,1.1069
366,377,2046.229632,0.6592,1.8629,416,427,1580.796253,0.5928,0.9175,466,477,1257.861635,0.7023,2.3902,516,527,1024.667932,0.2488,1.0914
366.5,377.5,2081.362346,0.6528,1.8368,416.5,427.5,1608.187135,0.5587,0.7807,466.5,477.5,1279.813845,0.6942,2.3698,516.5,527.5,1042.654028,0.2469,1.0757
367,378,2116.402116,0.6418,1.8006,417,428,1635.514019,0.5474,0.6993,467,478,1301.72013,0.6845,2.3433,517,528,1060.606061,0.2447,1.058
367.5,378.5,2151.349311,0.6506,1.8159,417.5,428.5,1662.77713,0.5033,0.6919,467.5,478.5,1323.580634,0.6729,2.3136,517.5,528.5,1078.524125,0.2422,1.0437
368,379,2186.204297,0.6616,1.8148,418,429,1689.97669,0.4915,0.7172,468,479,1345.3955,0.6709,2.299,518,529,1096.408318,0.2391,1.0265
368.5,379.5,2220.967438,0.6977,1.7847,418.5,429.5,1717.112922,0.4426,0.7192,468.5,479.5,1367.164871,0.6631,2.271,518.5,529.5,1114.258735,0.2351,1.0109
369,380,2255.639098,0.7177,1.7545,419,430,1744.186047,0.4187,0.7577,469,480,1388.888889,0.6573,2.2401,519,530,1132.075472,0.2313,0.9948
369.5,380.5,2290.219636,0.7238,1.7652,419.5,430.5,1771.196283,0.4129,0.8168,469.5,480.5,1410.567696,0.6578,2.2199,519.5,530.5,1149.858624,0.2278,0.9796
370,381,2324.709411,0.6743,1.7893,420,431,1798.143852,0.4056,0.7561,470,481,1432.201432,0.6603,2.22,520,531,1167.608286,0.2246,0.9649
370.5,381.5,2359.108781,0.6627,1.7806,420.5,431.5,1825.028969,0.368,0.7107,470.5,481.5,1453.790239,0.6572,2.2075,520.5,531.5,1185.324553,0.223,0.9502
371,382,2393.4181,0.6667,1.8367,421,432,1851.851852,0.3924,0.5595,471,482,1475.334255,0.6611,2.1953,521,532,1203.007519,0.2221,0.9372
371.5,382.5,2427.637722,0.6722,1.8529,421.5,432.5,1878.612717,0.3213,0.5685,471.5,482.5,1496.833621,0.6631,2.2011,521.5,532.5,1220.657277,0.2223,0.9247
372,383,2461.767997,0.6894,1.8607,422,433,1905.311778,0.2956,0.6237,472,483,1518.288475,0.66,2.2029,522,533,1238.273921,0.224,0.9134
372.5,383.5,2495.809275,0.6934,1.7819,422.5,433.5,1931.94925,0.2487,0.6315,472.5,483.5,1539.698954,0.6631,2.1999,522.5,533.5,1255.857545,0.2261,0.9048
373,384,2529.761905,0.6944,1.7684,423,434,1958.525346,0.2121,0.6293,473,484,1561.065197,0.6584,2.2018,523,534,1273.40824,0.2285,0.8996
373.5,384.5,2563.626231,0.7122,1.7968,423.5,434.5,1985.040276,0.163,0.6724,473.5,484.5,1582.387341,0.6574,2.189,523.5,534.5,1290.926099,0.2334,0.8939
374,385,2597.402597,0.7004,1.8030,424,435,2011.494253,0.1402,0.7004,474,485,1603.665521,0.6559,2.1833,524,535,1308.411215,0.2363,0.8877
374.5,385.5,2631.091347,0.6959,1.8390,424.5,435.5,2037.887486,0.1351,0.7568,474.5,485.5,1624.899874,0.6555,2.1698,524.5,535.5,1325.863679,0.2368,0.8808
375,386,2664.69282,0.7041,1.8860,425,436,2064.220183,0.1275,0.7819,475,486,1646.090535,0.6636,2.1662,525,536,1343.283582,0.235,0.8749
375.5,386.5,2698.207355,0.7132,1.9559,425.5,436.5,2090.492554,0.1274,0.8842,475.5,486.5,1667.237638,0.6524,2.1513,525.5,536.5,1360.671016,0.2298,0.8675
376,387,2731.63529,0.7324,2.0410,426,437,2116.704805,0.1138,0.803,476,487,1688.341319,0.6471,2.1457,526,537,1378.026071,0.22,0.8611
376.5,387.5,2764.976959,0.7456,2.0912,426.5,437.5,2142.857143,0.11,0.7092,476.5,487.5,1709.401709,0.6415,2.1268,526.5,537.5,1395.348837,0.2084,0.851
377,388,2798.232695,0.7004,2.1358,427,438,2168.949772,0.1298,0.681,477,488,1730.418944,0.6266,2.1108,527,538,1412.639405,0.1939,0.8441
377.5,388.5,2831.402831,0.7074,2.0956,427.5,438.5,2194.982896,0.1834,0.5022,477.5,488.5,1751.393154,0.6149,2.0909,527.5,538.5,1429.897864,0.1769,0.8352
378,389,2864.487697,0.8145,2.1270,428,439,2220.95672,0.2525,0.4826,478,489,1772.324472,0.6138,2.0753,528,539,1447.124304,0.1619,0.8234
378.5,389.5,2897.487621,0.8941,2.1720,428.5,439.5,2246.871445,0.3229,0.5199,478.5,489.5,1793.213029,0.6009,2.0412,528.5,539.5,1464.318814,0.1486,0.8113
379,390,2930.40293,0.9413,2.2047,429,440,2272.727273,0.3654,0.6089,479,490,1814.058957,0.5957,2.0096,529,540,1481.481481,0.1369,0.7988
379.5,390.5,2963.233949,1.0515,2.2650,429.5,440.5,2298.524404,0.3998,0.6006,479.5,490.5,1834.862385,0.5849,1.9872,529.5,540.5,1498.612396,0.1254,0.7862
380,391,2995.981001,1.2316,2.3219,430,441,2324.263039,0.4312,0.7512,480,491,1855.623444,0.5748,1.9654,530,541,1515.711645,0.1193,0.7767
380.5,391.5,3028.644408,1.4359,2.3692,430.5,441.5,2349.943375,0.417,0.8833,480.5,491.5,1876.342263,0.5603,1.93,530.5,541.5,1532.779317,0.1146,0.7648
381,392,3061.22449,1.6411,2.4046,431,442,2375.565611,0.3946,0.8127,481,492,1897.01897,0.555,1.9036,531,542,1549.815498,0.1119,0.7557
381.5,392.5,3093.721565,1.7946,2.5086,431.5,442.5,2401.129944,0.4379,0.7214,481.5,492.5,1917.653694,0.5423,1.8902,531.5,542.5,1566.820276,0.1123,0.7471
382,393,3126.135951,1.8987,2.4971,432,443,2426.636569,0.4022,0.7064,482,493,1938.246563,0.5361,1.8728,532,543,1583.793738,0.1144,0.7397
382.5,393.5,3158.467962,2.0568,2.6932,432.5,443.5,2452.085682,0.4431,0.5786,482.5,493.5,1958.797703,0.5275,1.8566,532.5,543.5,1600.735971,0.1169,0.7322
383,394,3190.717912,2.2005,2.9046,433,444,2477.477477,0.4971,0.5954,483,494,1979.307242,0.5173,1.8388,533,544,1617.647059,0.1202,0.725
383.5,394.5,3222.886113,2.2200,3.1460,433.5,444.5,2502.812148,0.4788,0.7015,483.5,494.5,1999.775306,0.5175,1.8181,533.5,544.5,1634.527089,0.1231,0.7167
384,395,3254.972875,2.2422,3.3824,434,445,2528.089888,0.4914,0.8265,484,495,2020.20202,0.5205,1.8078,534,545,1651.376147,0.1216,0.7097
384.5,395.5,3286.978508,2.3154,3.5974,434.5,445.5,2553.310887,0.4681,0.7552,484.5,495.5,2040.58751,0.5172,1.7837,534.5,545.5,1668.194317,0.1191,0.702
385,396,3318.903319,2.3076,3.7876,435,446,2578.475336,0.4542,0.8464,485,496,2060.9319,0.5218,1.7796,535,546,1684.981685,0.1149,0.6947
385.5,396.5,3350.747613,2.2791,3.7815,435.5,446.5,2603.583427,0.3865,0.9104,485.5,496.5,2081.235314,0.5139,1.7621,535.5,546.5,1701.738335,0.11,0.6888
386,397,3382.511695,2.2360,3.7651,436,447,2628.635347,0.4124,0.8264,486,497,2101.497876,0.5096,1.735,536,547,1718.464351,0.1041,0.6841
386.5,397.5,3414.195867,2.1749,3.7327,436.5,447.5,2653.631285,0.4214,0.8035,486.5,497.5,2121.71971,0.5052,1.7173,536.5,547.5,1735.159817,0.1025,0.6819
387,398,3445.800431,2.1438,3.5150,437,448,2678.571429,0.3829,0.8089,487,498,2141.900937,0.4989,1.697,537,548,1751.824818,0.1008,0.6837
387.5,398.5,3477.325686,2.1013,3.4822,437.5,448.5,2703.455964,0.3912,0.6752,487.5,498.5,2162.041681,0.4995,1.6824,537.5,548.5,1768.459435,0.1026,0.6859
388,399,3508.77193,2.0854,3.3656,438,449,2728.285078,0.3727,0.6247,488,499,2182.142062,0.4968,1.6646,538,549,1785.063752,0.1107,0.688
388.5,399.5,3540.13946,2.0890,3.2805,438.5,449.5,2753.058954,0.3194,0.6769,488.5,499.5,2202.202202,0.4932,1.6611,538.5,549.5,1801.637853,0.1198,0.6936
389,400,3571.428571,2.2104,3.1636,439,450,2777.777778,0.3495,0.6821,489,500,2222.222222,0.4885,1.6706,539,550,1818.181818,0.1302,0.7004
389.5,400.5,3602.639558,2.2154,3.0256,439.5,450.5,2802.441731,0.3171,0.6646,489.5,500.5,2242.202242,0.475,1.6686,539.5,550.5,1834.695731,0.1443,0.7044
390,401,3633.772711,2.1142,2.8680,440,451,2827.050998,0.3387,0.6625,490,501,2262.142382,0.4692,1.6684,540,551,1851.179673,0.1588,0.71
390.5,401.5,3664.828322,1.9457,2.6335,440.5,451.5,2851.605759,0.3163,0.6943,490.5,501.5,2282.042761,0.4593,1.6477,540.5,551.5,1867.633726,0.1702,0.7105
391,402,3695.806681,1.8247,2.5038,441,452,2876.106195,0.4079,0.6889,491,502,2301.903497,0.4617,1.6459,541,552,1884.057971,0.1825,0.7112
391.5,402.5,3726.708075,1.7674,2.3815,441.5,452.5,2900.552486,0.4293,0.7164,491.5,502.5,2321.72471,0.459,1.6468,541.5,552.5,1900.452489,0.192,0.7086
392,403,3757.53279,1.6808,2.2511,442,453,2924.944812,0.4586,0.7152,492,503,2341.506516,0.4599,1.6441,542,553,1916.81736,0.1988,0.7022
392.5,403.5,3788.281112,1.4365,2.2222,442.5,453.5,2949.283352,0.4359,0.7623,492.5,503.5,2361.249035,0.4498,1.6396,542.5,553.5,1933.152665,0.2032,0.6949
393,404,3818.953324,1.2924,2.1655,443,454,2973.568282,0.4498,0.8372,493,504,2380.952381,0.4561,1.6339,543,554,1949.458484,0.2061,0.6868
393.5,404.5,3849.549709,1.1723,2.1326,443.5,454.5,2997.79978,0.4236,0.9528,493.5,504.5,2400.616672,0.4524,1.6256,543.5,554.5,1965.734896,0.2057,0.6765
394,405,3880.070547,1.0916,2.0834,444,455,3021.978022,0.399,1.1004,494,505,2420.242024,0.45,1.6237,544,555,1981.981982,0.2014,0.6648
394.5,405.5,3910.516118,0.9393,2.0447,444.5,455.5,3046.103183,0.3623,1.1686,494.5,505.5,2439.828553,0.4447,1.6203,544.5,555.5,1998.19982,0.1942,0.6512
395,406,3940.8867,0.8266,1.9785,445,456,3070.175439,0.4231,1.1692,495,506,2459.376372,0.4482,1.6201,545,556,2014.388489,0.188,0.6373
395.5,406.5,3971.182569,0.7268,1.9324,445.5,456.5,3094.194962,0.4518,1.2374,495.5,506.5,2478.885598,0.4505,1.6168,545.5,556.5,2030.548068,0.1812,0.6264
396,407,4001.404001,0.7140,1.9194,446,457,3118.161926,0.5978,1.2369,496,507,2498.356345,0.4519,1.5962,546,557,2046.678636,0.173,0.6164
396.5,407.5,4031.551271,0.7216,1.9671,446.5,457.5,3142.076503,0.7361,1.2231,496.5,507.5,2517.788725,0.4413,1.5856,546.5,557.5,2062.780269,0.1658,0.6093
397,408,4061.62465,0.6854,2.0128,447,458,3165.938865,0.8557,1.181,497,508,2537.182852,0.4449,1.5729,547,558,2078.853047,0.1581,0.6038
397.5,408.5,4091.62441,0.5471,2.1110,447.5,458.5,3189.749182,0.9489,1.3155,497.5,508.5,2556.53884,0.4404,1.5709,547.5,558.5,2094.897046,0.1533,0.6
398,409,4121.550821,0.6464,2.0936,448,459,3213.507625,1.1213,1.3867,498,509,2575.8568,0.4359,1.5716,548,559,2110.912343,0.1492,0.5953
398.5,409.5,4151.404151,0.7002,2.0909,448.5,459.5,3237.214363,1.1438,1.4724,498.5,509.5,2595.136844,0.4379,1.5866,548.5,559.5,2126.899017,0.1458,0.5925
399,410,4181.184669,0.7721,2.1090,449,460,3260.869565,1.1832,1.5063,499,510,2614.379085,0.4317,1.5846,549,560,2142.857143,0.1445,0.5896
399.5,410.5,4210.89264,0.7957,2.1686,449.5,460.5,3284.473398,1.1878,1.4792,499.5,510.5,2633.583633,0.4356,1.5656,549.5,560.5,2158.786798,0.1427,0.5844
400,411,4240.528328,0.8239,2.1232,450,461,3308.02603,1.2048,1.5093,500,511,2652.750598,0.4298,1.5641,550,561,2174.688057,0.1413,0.5823
400.5,411.5,4270.091998,0.8463,2.1091,450.5,461.5,3331.527627,1.2136,1.5957,500.5,511.5,2671.880091,0.4377,1.5316,550.5,561.5,2190.560997,0.1396,0.5762
401,412,4299.583911,0.8001,2.0800,451,462,3354.978355,1.2147,1.5812,501,512,2690.972222,0.4492,1.5513,551,562,2206.405694,0.1386,0.5721
401.5,412.5,4329.004329,0.7374,2.0842,451.5,462.5,3378.378378,1.2292,1.6203,501.5,512.5,2710.0271,0.4507,1.545,551.5,562.5,2222.222222,0.1375,0.5681
402,413,4358.353511,0.7127,2.0660,452,463,3401.727862,1.1154,1.5526,502,513,2729.044834,0.4535,1.5353,552,563,2238.010657,0.1375,0.5637
402.5,413.5,4387.631715,0.6638,2.0883,452.5,463.5,3425.026969,1.1766,1.6001,502.5,513.5,2748.025533,0.4596,1.5262,552.5,563.5,2253.771074,0.1362,0.5609
403,414,4416.839199,0.6945,2.0651,453,464,3448.275862,1.1538,1.5998,503,514,2766.969304,0.4725,1.5274,553,564,2269.503546,0.1352,0.5587
403.5,414.5,4445.976219,0.6925,2.0820,453.5,464.5,3471.474704,1.0508,1.5472,503.5,514.5,2785.876255,0.4718,1.5254,553.5,564.5,2285.208149,0.1331,0.5568
404,415,4475.043029,0.7889,2.1310,454,465,3494.623656,1.0132,1.4766,504,515,2804.746494,0.4723,1.5341,554,565,2300.884956,0.1295,0.5557
404.5,415.5,4504.039883,0.8617,2.2598,454.5,465.5,3517.722879,1.0159,1.4071,504.5,515.5,2823.580127,0.4904,1.5375,554.5,565.5,2316.534041,0.1276,0.5537
405,416,4532.967033,0.8713,2.1662,455,466,3540.772532,0.9214,1.3852,505,516,2842.377261,0.5134,1.5279,555,566,2332.155477,0.127,0.5522
405.5,416.5,4561.82473,0.8516,2.1329,455.5,466.5,3563.772776,0.917,1.3912,505.5,516.5,2861.138002,0.5255,1.537,555.5,566.5,2347.749338,0.1253,0.5522
406,417,4590.613224,0.8223,2.0876,456,467,3586.723769,0.819,1.3988,506,517,2879.862454,0.5413,1.5317,556,567,2363.315697,0.1243,0.5493
406.5,417.5,4619.332763,0.8532,2.0837,456.5,467.5,3609.625668,0.7548,1.4451,506.5,517.5,2898.550725,0.5521,1.5177,556.5,567.5,2378.854626,0.1233,0.5469
407,418,4647.983595,0.9056,2.0849,457,468,3632.478632,0.6292,1.3275,507,518,2917.202917,0.5761,1.5237,557,568,2394.366197,0.1229,0.5443
407.5,418.5,4676.565967,0.8290,2.1178,457.5,468.5,3655.282818,0.6609,1.25,507.5,518.5,2935.819136,0.5976,1.5282,557.5,568.5,2409.850484,0.1212,0.5432
408,419,4705.080123,0.7798,2.0937,458,469,3678.03838,0.5605,1.2087,508,519,2954.399486,0.6242,1.5493,558,569,2425.307557,0.1207,0.5409
408.5,419.5,4733.526307,0.7141,2.1051,458.5,469.5,3700.745474,0.4667,1.0009,508.5,519.5,2972.94407,0.6523,1.5514,558.5,569.5,2440.737489,0.1209,0.5394
409,420,4761.904762,0.7981,2.1205,459,470,3723.404255,0.4709,0.8447,509,520,2991.452991,0.672,1.5532,559,570,2456.140351,0.1202,0.539
409.5,420.5,4790.21573,0.8769,2.1825,459.5,470.5,3746.014878,0.4768,0.7294,509.5,520.5,3009.926353,0.6914,1.5651,559.5,570.5,2471.516214,0.1186,0.5379
410,421,4818.45945,0.7977,2.0492,460,471,3768.577495,0.3851,0.6613,510,521,3028.364257,0.6966,1.5806,560,571,2486.865149,0.1194,0.5373
410.5,421.5,4846.636163,0.7396,2.0322,460.5,471.5,3791.092259,0.4641,0.5977,510.5,521.5,3046.766805,0.727,1.5932,560.5,571.5,2502.187227,0.1194,0.5357
411,422,4874.746107,0.7367,2.0407,461,472,3813.559322,0.3998,0.6348,511,522,3065.1341,0.7497,1.6255,561,572,2517.482517,0.1205,0.5342
411.5,422.5,4902.789518,0.7565,2.0922,461.5,472.5,3835.978836,0.3775,0.697,511.5,522.5,3083.466241,0.7622,1.6313,561.5,572.5,2532.751092,0.1239,0.5335
412,423,4930.766633,0.7366,2.1077,462,473,3858.350951,0.3707,0.6463,512,523,3101.763331,0.7769,1.6561,562,573,2547.993019,0.1261,0.5338
412.5,423.5,4958.677686,0.6465,2.1571,462.5,473.5,3880.675818,0.3797,0.6072,512.5,523.5,3120.02547,0.7892,1.6745,562.5,573.5,2563.20837,0.1269,0.5313
413,424,4986.522911,0.6270,2.1791,463,474,3902.953586,0.385,0.6232,513,524,3138.252757,0.8086,1.7003,563,574,2578.397213,0.1279,0.5296
413.5,424.5,5014.302541,0.6113,2.1722,463.5,474.5,3925.184405,0.3672,0.4648,513.5,524.5,3156.445292,0.8217,1.7071,563.5,574.5,2593.559617,0.1294,0.5291
414,425,5042.016807,0.6712,2.1399,464,475,3947.368421,0.3814,0.4385,514,525,3174.603175,0.8378,1.7269,564,575,2608.695652,0.1327,0.5293
414.5,425.5,5069.665939,0.7283,2.1410,464.5,475.5,3969.505783,0.3459,0.4614,514.5,525.5,3192.726504,0.861,1.7444,564.5,575.5,2623.805387,0.1366,0.5296
415,426,5097.250168,0.6785,2.0410,465,476,3991.596639,0.3741,0.4404,515,526,3210.815378,0.8807,1.7553,565,576,2638.888889,0.1402,0.5302
415.5,426.5,5124.76972,0.7796,1.9736,465.5,476.5,4013.641133,0.4078,0.4539,515.5,526.5,3228.869896,0.8951,1.7785,565.5,576.5,2653.946227,0.1457,0.531
416,427,5152.224824,0.8858,1.9552,466,477,4035.639413,0.3852,0.5402,516,527,3246.890154,0.9127,1.7986,566,577,2668.97747,0.1517,0.5323
416.5,427.5,5179.615706,0.8953,1.9339,466.5,477.5,4057.591623,0.4179,0.536,516.5,527.5,3264.876251,0.9262,1.8004,566.5,577.5,2683.982684,0.1563,0.5336
417,428,5206.94259,0.8764,1.8799,467,478,4079.497908,0.4782,0.6285,517,528,3282.828283,0.9392,1.8249,567,578,2698.961938,0.1602,0.5335
417.5,428.5,5234.205701,0.8755,1.9338,467.5,478.5,4101.358412,0.5067,0.644,517.5,528.5,3300.746347,0.9525,1.8383,567.5,578.5,2713.915298,0.162,0.5335
418,429,5261.405261,0.8079,1.9980,468,479,4123.173278,0.5164,0.6897,518,529,3318.63054,0.956,1.8556,568,579,2728.842832,0.166,0.5303
418.5,429.5,5288.541493,0.7809,1.9719,468.5,479.5,4144.942649,0.495,0.6558,518.5,529.5,3336.480957,0.9668,1.8437,568.5,579.5,2743.744607,0.1699,0.5315
419,430,5315.614618,0.7303,1.9699,469,480,4166.666667,0.4404,0.6104,519,530,3354.297694,0.9623,1.8494,569,580,2758.62069,0.1729,0.5328
419.5,430.5,5342.624855,0.7591,2.0020,469.5,480.5,4188.345473,0.4112,0.6097,519.5,530.5,3372.080846,0.9697,1.8559,569.5,580.5,2773.471146,0.1752,0.5336
420,431,5369.572423,0.7478,1.9903,470,481,4209.97921,0.3812,0.5346,520,531,3389.830508,0.9662,1.8508,570,581,2788.296041,0.1801,0.5338
420.5,431.5,5396.45754,0.7985,1.9400,470.5,481.5,4231.568017,0.312,0.4961,520.5,531.5,3407.546775,0.9636,1.8453,570.5,581.5,2803.095443,0.1817,0.5336
421,432,5423.280423,0.7267,1.9311,471,482,4253.112033,0.2794,0.4703,521,532,3425.229741,0.9652,1.8291,571,582,2817.869416,0.1832,0.5318
421.5,432.5,5450.041288,0.6313,1.8917,471.5,482.5,4274.611399,0.2386,0.3616,521.5,532.5,3442.879499,0.9531,1.8186,571.5,582.5,2832.618026,0.1848,0.5319
422,433,5476.74035,0.4920,1.8809,472,483,4296.066253,0.2812,0.4042,522,533,3460.496143,0.9442,1.8135,572,583,2847.341338,0.1855,0.5327
422.5,433.5,5503.377822,0.4264,1.8644,472.5,483.5,4317.476732,0.3027,0.383,522.5,533.5,3478.079767,0.9337,1.7939,572.5,583.5,2862.039417,0.1875,0.5313
423,434,5529.953917,0.4123,1.7933,473,484,4338.842975,0.32,0.3847,523,534,3495.630462,0.9334,1.7953,573,584,2876.712329,0.1895,0.5309
423.5,434.5,5556.468848,0.3965,1.7167,473.5,484.5,4360.165119,0.3598,0.2895,523.5,534.5,3513.148321,0.9118,1.7802,573.5,584.5,2891.360137,0.1907,0.5319
424,435,5582.922824,0.4342,1.6535,474,485,4381.443299,0.357,0.2634,524,535,3530.633437,0.9002,1.7857,574,585,2905.982906,0.193,0.5329
424.5,435.5,5609.316057,0.5379,1.6605,474.5,485.5,4402.677652,0.359,0.3146,524.5,535.5,3548.085901,0.8821,1.7934,574.5,585.5,2920.5807,0.1938,0.5327
425,436,5635.648755,0.5497,1.6712,475,486,4423.868313,0.3274,0.3078,525,536,3565.505804,0.8779,1.78,575,586,2935.153584,0.1954,0.5334
425.5,436.5,5661.921126,0.4782,1.6366,475.5,486.5,4445.015416,0.2989,0.3054,525.5,536.5,3582.893238,0.8662,1.7709,575.5,586.5,2949.70162,0.1982,0.5336
426,437,5688.133377,0.3849,1.6148,476,487,4466.119097,0.2488,0.3038,526,537,3600.248293,0.8435,1.7661,576,587,2964.224872,0.2,0.5349
426.5,437.5,5714.285714,0.2891,1.6172,476.5,487.5,4487.179487,0.1942,0.2492,526.5,537.5,3617.571059,0.8274,1.7395,576.5,587.5,2978.723404,0.2018,0.5339
427,438,5740.378343,0.1776,1.6475,477,488,4508.196721,0.1848,0.2447,527,538,3634.861627,0.8132,1.7276,577,588,2993.197279,0.205,0.5311
427.5,438.5,5766.411468,0.0962,1.6232,477.5,488.5,4529.170931,0.1606,0.2071,527.5,538.5,3652.120087,0.795,1.7017,577.5,588.5,3007.646559,0.2077,0.5298
428,439,5792.385291,0.2251,1.6529,478,489,4550.102249,0.1683,0.2095,528,539,3669.346526,0.781,1.6746,578,589,3022.071307,0.2115,0.5294
428.5,439.5,5818.300016,0.3278,1.7562,478.5,489.5,4570.990807,0.167,0.1576,528.5,539.5,3686.541036,0.7706,1.6302,578.5,589.5,3036.471586,0.2165,0.531
429,440,5844.155844,0.4862,1.8413,479,490,4591.836735,0.1804,0.2188,529,540,3703.703704,0.7464,1.6027,579,590,3050.847458,0.2194,0.5296
429.5,440.5,5869.952976,0.5654,1.9862,479.5,490.5,4612.640163,0.1984,0.2731,529.5,540.5,3720.834618,0.7207,1.567,579.5,590.5,3065.198984,0.2211,0.5295
430,441,5895.69161,0.6212,2.0869,480,491,4633.401222,0.2262,0.275,530,541,3737.933867,0.6931,1.5401,580,591,3079.526227,0.2246,0.5296
430.5,441.5,5921.371946,0.6603,2.1213,480.5,491.5,4654.120041,0.2827,0.2857,530.5,541.5,3755.001539,0.6754,1.4975,580.5,591.5,3093.829248,0.225,0.5297
431,442,5946.994182,0.7098,2.1351,481,492,4674.796748,0.2625,0.272,531,542,3772.03772,0.6538,1.4495,581,592,3108.108108,0.2265,0.5304
431.5,442.5,5972.558515,0.7088,2.1231,481.5,492.5,4695.431472,0.2539,0.294,531.5,542.5,3789.042499,0.6245,1.4194,581.5,592.5,3122.362869,0.228,0.5334
432,443,5998.06514,0.7181,2.0364,482,493,4716.024341,0.2275,0.3083,532,543,3806.015961,0.5924,1.385,582,593,3136.593592,0.2302,0.5355
432.5,443.5,6023.514254,0.6218,1.9463,482.5,493.5,4736.575481,0.2218,0.2827,532.5,543.5,3822.958193,0.5658,1.3524,582.5,593.5,3150.800337,0.2334,0.5361
433,444,6048.906049,0.6889,1.8758,483,494,4757.08502,0.1902,0.352,533,544,3839.869281,0.5418,1.3324,583,594,3164.983165,0.2344,0.5359
433.5,444.5,6074.24072,0.7022,1.8753,483.5,494.5,4777.553084,0.1646,0.3283,533.5,544.5,3856.749311,0.5148,1.3039,583.5,594.5,3179.142136,0.2347,0.5366
434,445,6099.518459,0.7267,1.7922,484,495,4797.979798,0.1789,0.3619,534,545,3873.598369,0.4915,1.296,584,595,3193.277311,0.2359,0.5382
434.5,445.5,6124.739458,0.7572,1.7946,484.5,495.5,4818.365288,0.1827,0.3834,534.5,545.5,3890.416539,0.4695,1.2945,584.5,595.5,3207.388749,0.2357,0.5405
435,446,6149.903908,0.7876,1.7264,485,496,4838.709677,0.2114,0.3695,535,546,3907.203907,0.4551,1.2657,585,596,3221.47651,0.2349,0.542
435.5,446.5,6175.011998,0.7669,1.6947,485.5,496.5,4859.013092,0.253,0.3571,535.5,546.5,3923.960557,0.4382,1.2585,585.5,596.5,3235.540654,0.2359,0.5433
436,447,6200.063918,0.7144,1.7472,486,497,4879.275654,0.2657,0.3438,536,547,3940.686573,0.4155,1.2499,586,597,3249.58124,0.2366,0.545
436.5,447.5,6225.059856,0.6586,1.7863,486.5,497.5,4899.497487,0.2652,0.3463,536.5,547.5,3957.38204,0.4143,1.2387,586.5,597.5,3263.598326,0.2372,0.5457
437,448,6250,0.6590,1.7516,487,498,4919.678715,0.2561,0.3619,537,548,3974.04704,0.4079,1.233,587,598,3277.591973,0.2371,0.546
437.5,448.5,6274.884536,0.5711,1.8490,487.5,498.5,4939.819458,0.2395,0.3868,537.5,548.5,3990.681657,0.3993,1.2238,587.5,598.5,3291.562239,0.2361,0.5468
438,449,6299.713649,0.5022,1.9418,488,499,4959.91984,0.1803,0.4285,538,549,4007.285974,0.3925,1.2211,588,599,3305.509182,0.2362,0.5464
438.5,449.5,6324.487526,0.4328,1.9567,488.5,499.5,4979.97998,0.2206,0.4121,538.5,549.5,4023.860075,0.384,1.2152,588.5,599.5,3319.432861,0.2364,0.5444
439,450,6349.206349,0.4416,1.8450,489,500,5000,0.2252,0.4035,539,550,4040.40404,0.3711,1.2254,589,600,3333.333333,0.235,0.5427
439.5,450.5,6373.870303,0.4515,1.7815,489.5,500.5,5019.98002,0.2741,0.4061,539.5,550.5,4056.917953,0.3607,1.2266,589.5,600.5,3347.210658,0.2347,0.5412
440,451,6398.479569,0.4687,1.7494,490,501,5039.92016,0.3149,0.4583,540,551,4073.401896,0.3588,1.2173,590,601,3361.064892,0.2359,0.5416
440.5,451.5,6423.03433,0.4323,1.7107,490.5,501.5,5059.820538,0.3916,0.4583,540.5,551.5,4089.855948,0.3497,1.2067,590.5,601.5,3374.896093,0.2361,0.5411
441,452,6447.534766,0.4190,1.7222,491,502,5079.681275,0.4284,0.4692,541,552,4106.280193,0.3299,1.1784,591,602,3388.704319,0.2358,0.5414
441.5,452.5,6471.981058,0.4496,1.7888,491.5,502.5,5099.502488,0.4422,0.4924,541.5,552.5,4122.674711,0.3144,1.1717,591.5,602.5,3402.489627,0.237,0.5412
442,453,6496.373384,0.5831,1.8161,492,503,5119.284294,0.4243,0.5696,542,553,4139.039582,0.3008,1.1456,592,603,3416.252073,0.2391,0.5406
442.5,453.5,6520.711923,0.6641,1.8674,492.5,503.5,5139.026812,0.3742,0.5788,542.5,553.5,4155.374887,0.2936,1.1289,592.5,603.5,3429.991715,0.2408,0.5418
443,454,6544.996853,0.6765,1.9345,493,504,5158.730159,0.2995,0.5399,543,554,4171.680706,0.285,1.1144,593,604,3443.708609,0.2425,0.5434
443.5,454.5,6569.228351,0.6554,1.9054,493.5,504.5,5178.39445,0.3091,0.5317,543.5,554.5,4187.957119,0.2749,1.0976,593.5,604.5,3457.402812,0.2452,0.545
444,455,6593.406593,0.5735,1.8497,494,505,5198.019802,0.3174,0.453,544,555,4204.204204,0.2631,1.1,594,605,3471.07438,0.2464,0.5488
444.5,455.5,6617.531755,0.4820,1.7999,494.5,505.5,5217.60633,0.3512,0.4479,544.5,555.5,4220.422042,0.2572,1.088,594.5,605.5,3484.723369,0.2485,0.5479
445,456,6641.60401,0.4749,1.7978,495,506,5237.15415,0.3911,0.4767,545,556,4236.610711,0.2506,1.0656,595,606,3498.349835,0.25,0.5476
445.5,456.5,6665.623533,0.4683,1.6964,495.5,506.5,5256.663376,0.4528,0.4746,545.5,556.5,4252.770291,0.255,1.0595,595.5,606.5,3511.953833,0.2516,0.5475
446,457,6689.590497,0.4733,1.6477,496,507,5276.134122,0.4346,0.5298,546,557,4268.900858,0.2563,1.0525,596,607,3525.53542,0.2523,0.5474
446.5,457.5,6713.505074,0.5164,1.6864,496.5,507.5,5295.566502,0.4851,0.6095,546.5,557.5,4285.002491,0.2557,1.045,596.5,607.5,3539.09465,0.2491,0.5468
447,458,6737.367436,0.5702,1.6682,497,508,5314.96063,0.4632,0.6816,547,558,4301.075269,0.2556,1.0378,597,608,3552.631579,0.2448,0.541
447.5,458.5,6761.177754,0.6027,1.6468,497.5,508.5,5334.316618,0.4229,0.6737,547.5,558.5,4317.119268,0.2576,1.0405,597.5,608.5,3566.146261,0.2399,0.5364
448,459,6784.936197,0.6020,1.6446,498,509,5353.634578,0.3846,0.6743,548,559,4333.134566,0.2579,1.0443,598,609,3579.638752,0.2352,0.5325
448.5,459.5,6808.642935,0.6051,1.6165,498.5,509.5,5372.914622,0.3699,0.6729,548.5,559.5,4349.121239,0.2488,1.0321,598.5,609.5,3593.109106,0.2274,0.5224
449,460,6832.298137,0.5951,1.5887,499,510,5392.156863,0.3602,0.6642,549,560,4365.079365,0.249,1.021,599,610,3606.557377,0.2188,0.5138
449.5,460.5,6855.90197,0.6714,1.4268,499.5,510.5,5411.36141,0.3183,0.6391,549.5,560.5,4381.00902,0.2483,0.9921,599.5,610.5,3619.98362,0.2123,0.505
450,461,6879.454602,0.7650,1.1650,500,511,5430.528376,0.33,0.686,550,561,4396.910279,0.25,1.051,600,611,3633.387889,0.2057,0.4985
,,,,,,,,,,,,,,,600.5,611.5,3646.770237,0.1979,0.4905
,,,,,,,,,,,,,,,601,612,3660.130719,0.1906,0.4841
,,,,,,,,,,,,,,,601.5,612.5,3673.469388,0.1878,0.4774
,,,,,,,,,,,,,,,602,613,3686.786297,0.1846,0.4698
,,,,,,,,,,,,,,,602.5,613.5,3700.0815,0.1815,0.4653
,,,,,,,,,,,,,,,603,614,3713.355049,0.1799,0.4594
,,,,,,,,,,,,,,,603.5,614.5,3726.606998,0.1793,0.4515
,,,,,,,,,,,,,,,604,615,3739.837398,0.1789,0.4458
,,,,,,,,,,,,,,,604.5,615.5,3753.046304,0.1802,0.4375
,,,,,,,,,,,,,,,605,616,3766.233766,0.1791,0.4325
,,,,,,,,,,,,,,,605.5,616.5,3779.399838,0.177,0.4241
,,,,,,,,,,,,,,,606,617,3792.544571,0.175,0.4146
,,,,,,,,,,,,,,,606.5,617.5,3805.668016,0.1681,0.4025
,,,,,,,,,,,,,,,607,618,3818.770227,0.1594,0.3886
,,,,,,,,,,,,,,,607.5,618.5,3831.851253,0.147,0.3787
,,,,,,,,,,,,,,,608,619,3844.911147,0.1347,0.3667
,,,,,,,,,,,,,,,608.5,619.5,3857.94996,0.1189,0.3516
,,,,,,,,,,,,,,,609,620,3870.967742,0.1046,0.3415
,,,,,,,,,,,,,,,609.5,620.5,3883.964545,0.0906,0.3327
,,,,,,,,,,,,,,,610,621,3896.940419,0.0764,0.3257
,,,,,,,,,,,,,,,610.5,621.5,3909.895414,0.0624,0.3191
,,,,,,,,,,,,,,,611,622,3922.829582,0.051,0.314
,,,,,,,,,,,,,,,611.5,622.5,3935.742972,0.0422,0.3093
,,,,,,,,,,,,,,,612,623,3948.635634,0.0326,0.3065
,,,,,,,,,,,,,,,612.5,623.5,3961.507618,0.0251,0.3062
,,,,,,,,,,,,,,,613,624,3974.358974,0.0191,0.3043
,,,,,,,,,,,,,,,613.5,624.5,3987.189752,0.0161,0.3035
,,,,,,,,,,,,,,,614,625,4000,0.0153,0.3054
,,,,,,,,,,,,,,,614.5,625.5,4012.789768,0.0148,0.3056
,,,,,,,,,,,,,,,615,626,4025.559105,0.0145,0.3058
,,,,,,,,,,,,,,,615.5,626.5,4038.308061,0.0154,0.3049
,,,,,,,,,,,,,,,616,627,4051.036683,0.0169,0.3038
,,,,,,,,,,,,,,,616.5,627.5,4063.74502,0.0163,0.3028
,,,,,,,,,,,,,,,617,628,4076.433121,0.0158,0.3023
,,,,,,,,,,,,,,,617.5,628.5,4089.101034,0.015,0.3011
,,,,,,,,,,,,,,,618,629,4101.748808,0.0159,0.3004
,,,,,,,,,,,,,,,618.5,629.5,4114.376489,0.0163,0.3006
,,,,,,,,,,,,,,,619,630,4126.984127,0.0174,0.2998
,,,,,,,,,,,,,,,619.5,630.5,4139.571768,0.0181,0.3001
,,,,,,,,,,,,,,,620,631,4152.139461,0.0191,0.2996
,,,,,,,,,,,,,,,620.5,631.5,4164.687253,0.0195,0.2987
,,,,,,,,,,,,,,,621,632,4177.21519,0.0204,0.2984
,,,,,,,,,,,,,,,621.5,632.5,4189.72332,0.0208,0.2993
,,,,,,,,,,,,,,,622,633,4202.21169,0.0211,0.3009
,,,,,,,,,,,,,,,622.5,633.5,4214.680347,0.0212,0.3016
,,,,,,,,,,,,,,,623,634,4227.129338,0.0214,0.3034
,,,,,,,,,,,,,,,623.5,634.5,4239.558708,0.0229,0.3054
,,,,,,,,,,,,,,,624,635,4251.968504,0.0244,0.3073
,,,,,,,,,,,,,,,624.5,635.5,4264.358773,0.0249,0.3087
,,,,,,,,,,,,,,,625,636,4276.72956,0.0273,0.3106
,,,,,,,,,,,,,,,625.5,636.5,4289.080911,0.0288,0.3123
,,,,,,,,,,,,,,,626,637,4301.412873,0.0301,0.3143
,,,,,,,,,,,,,,,626.5,637.5,4313.72549,0.0323,0.316
,,,,,,,,,,,,,,,627,638,4326.018809,0.0354,0.3175
,,,,,,,,,,,,,,,627.5,638.5,4338.292874,0.0372,0.3182
,,,,,,,,,,,,,,,628,639,4350.547731,0.0388,0.3197
,,,,,,,,,,,,,,,628.5,639.5,4362.783425,0.0405,0.3216
,,,,,,,,,,,,,,,629,640,4375,0.043,0.3231
,,,,,,,,,,,,,,,629.5,640.5,4387.197502,0.0445,0.3247
,,,,,,,,,,,,,,,630,641,4399.375975,0.045,0.3263
,,,,,,,,,,,,,,,630.5,641.5,4411.535464,0.0464,0.3278
,,,,,,,,,,,,,,,631,642,4423.676012,0.0473,0.3289
,,,,,,,,,,,,,,,631.5,642.5,4435.797665,0.0471,0.3317
,,,,,,,,,,,,,,,632,643,4447.900467,0.0465,0.3334
,,,,,,,,,,,,,,,632.5,643.5,4459.98446,0.0463,0.3346
,,,,,,,,,,,,,,,633,644,4472.049689,0.0469,0.3351
,,,,,,,,,,,,,,,633.5,644.5,4484.096199,0.0473,0.3349
,,,,,,,,,,,,,,,634,645,4496.124031,0.0475,0.3351
,,,,,,,,,,,,,,,634.5,645.5,4508.13323,0.0468,0.3359
,,,,,,,,,,,,,,,635,646,4520.123839,0.047,0.3363
,,,,,,,,,,,,,,,635.5,646.5,4532.095901,0.0456,0.3363
,,,,,,,,,,,,,,,636,647,4544.049459,0.0448,0.3371
,,,,,,,,,,,,,,,636.5,647.5,4555.984556,0.0457,0.3376
,,,,,,,,,,,,,,,637,648,4567.901235,0.0463,0.3371
,,,,,,,,,,,,,,,637.5,648.5,4579.799537,0.0458,0.3368
,,,,,,,,,,,,,,,638,649,4591.679507,0.0459,0.3387
,,,,,,,,,,,,,,,638.5,649.5,4603.541186,0.0462,0.3408
,,,,,,,,,,,,,,,639,650,4615.384615,0.0459,0.3421
,,,,,,,,,,,,,,,639.5,650.5,4627.209839,0.0452,0.343
,,,,,,,,,,,,,,,640,651,4639.016897,0.0451,0.3452
,,,,,,,,,,,,,,,640.5,651.5,4650.805833,0.0462,0.3471
,,,,,,,,,,,,,,,641,652,4662.576687,0.047,0.3488
,,,,,,,,,,,,,,,641.5,652.5,4674.329502,0.0479,0.3516
,,,,,,,,,,,,,,,642,653,4686.064319,0.049,0.3526
,,,,,,,,,,,,,,,642.5,653.5,4697.781178,0.0503,0.3531
,,,,,,,,,,,,,,,643,654,4709.480122,0.0521,0.3525
,,,,,,,,,,,,,,,643.5,654.5,4721.161192,0.0527,0.3537
,,,,,,,,,,,,,,,644,655,4732.824427,0.0537,0.3571
,,,,,,,,,,,,,,,644.5,655.5,4744.46987,0.0541,0.3588
,,,,,,,,,,,,,,,645,656,4756.097561,0.0542,0.3601
,,,,,,,,,,,,,,,645.5,656.5,4767.70754,0.0556,0.363
,,,,,,,,,,,,,,,646,657,4779.299848,0.057,0.3652
,,,,,,,,,,,,,,,646.5,657.5,4790.874525,0.0582,0.3675
,,,,,,,,,,,,,,,647,658,4802.431611,0.0596,0.3703
,,,,,,,,,,,,,,,647.5,658.5,4813.971147,0.0595,0.3722
,,,,,,,,,,,,,,,648,659,4825.493171,0.0599,0.3756
,,,,,,,,,,,,,,,648.5,659.5,4836.997726,0.0622,0.3808
,,,,,,,,,,,,,,,649,660,4848.484848,0.0628,0.385
,,,,,,,,,,,,,,,649.5,660.5,4859.95458,0.0647,0.3817
,,,,,,,,,,,,,,,650,661,4871.406959,0.073,0.393