(1)comp,(1)comp_ajuste,(1)raman,v_350_5-5,p_350_5-5,(2)comp,(2)comp_ajuste,(2)raman,v_400_5-5,p_400_5-5,(3)comp,(3)comp_ajuste,(3)raman,v_450_10-10,p_450_10-10,(4)comp,(4)comp_ajuste,(4)raman,v_500_10-10,p_500_10-10
339,350,0,168.8603,497.8102,389,400,0,282.46,606.8768,439,450,0,424.8583,970.8944,489,500,0,220.7909,661.1235
339.5,350.5,40.75810067,172.5914,502.386,389.5,400.5,31.21098627,275.0251,592.08,439.5,450.5,24.66395363,432.7072,987.6123,489.5,500.5,19.98001998,222.0448,661.6854
340,351,81.4000814,171.3256,493.1243,390,401,62.34413965,262.287,569.5379,440,451,49.27322,437.4782,998.0435,490,501,39.92015968,221.7596,657.4815
340.5,351.5,121.9264377,163.6001,467.0891,390.5,401.5,93.39975093,244.4816,530.8038,440.5,451.5,73.8279808,439.1484,999.999,490.5,501.5,59.82053838,219.9478,648.3794
341,352,162.3376623,151.6106,429.1693,391,402,124.3781095,220.5684,472.4914,441,452,98.32841691,437.3284,998.1277,491,502,79.6812749,216.594,634.7421
341.5,352.5,202.6342452,137.6411,386.9012,391.5,402.5,155.2795031,191.1298,404.4157,441.5,452.5,122.7747084,432.4969,990.1639,491.5,502.5,99.50248756,211.7384,616.8723
342,353,242.8166734,121.4769,338.8381,392,403,186.1042184,160.0121,333.6658,442,453,147.1670346,424.7513,974.091,492,503,119.2842942,205.5042,595.0562
342.5,353.5,282.8854314,104.8108,288.4448,392.5,403.5,216.8525403,130.86,268.0328,442.5,453.5,171.5055739,414.9703,954.0306,492.5,503.5,139.0268123,198.0188,569.8509
343,354,322.8410008,88.3678,241.3092,393,404,247.5247525,104.415,210.5014,443,454,195.7905042,402.3377,926.8998,493,504,158.7301587,189.3757,541.7122
343.5,354.5,362.6838606,73.0519,197.3469,393.5,404.5,278.1211372,82.5414,165.4502,443.5,454.5,220.0220022,387.345,894.1238,493.5,504.5,178.39445,179.7676,511.1296
344,355,402.4144869,59.2257,158.7333,394,405,308.6419753,62.9077,127.0016,444,455,244.2002442,370.405,857.273,494,505,198.019802,169.3891,478.512
344.5,355.5,442.0333534,48.0433,127.0481,394.5,405.5,339.0875462,45.837,97.5248,444.5,455.5,268.3254055,352.4407,818.6185,494.5,505.5,217.6063304,158.4082,444.6127
345,356,481.540931,36.8365,96.2479,395,406,369.4581281,33.401,80.3466,445,456,292.3976608,332.7172,775.6739,495,506,237.1541502,146.9936,409.711
345.5,356.5,520.9376878,26.2754,68.1367,395.5,406.5,399.7539975,24.8032,60.6589,445.5,456.5,316.4171839,311.3426,728.1864,495.5,506.5,256.6633761,135.2864,374.5831
346,357,560.2240896,18.1927,45.9056,396,407,429.97543,17.3266,39.2565,446,457,340.3841478,289.145,677.886,496,507,276.1341223,123.4894,339.5218
346.5,357.5,599.4005994,12.1495,30.1865,396.5,407.5,460.1226994,10.0904,22.848,446.5,457.5,364.298725,266.5271,626.0726,496.5,507.5,295.5665025,111.8136,305.1705
347,358,638.4676776,7.3378,18.5772,397,408,490.1960784,5.0286,11.8023,447,458,388.1610869,244.2521,573.5625,497,508,314.9606299,100.3537,271.989
347.5,358.5,677.425782,3.8156,10.5349,397.5,408.5,520.1958384,2.6869,6.5705,447.5,458.5,411.9714043,222.5035,523.7187,497.5,508.5,334.3166175,89.2555,240.2814
348,359,716.2753681,1.847,5.4168,398,409,550.1222494,1.3866,3.207,448,459,435.7298475,201.0541,473.4881,498,509,353.6345776,78.598,210.2139
348.5,359.5,755.0168885,0.9752,2.8251,398.5,409.5,579.97558,1.1639,2.6747,448.5,459.5,459.4365857,180.0572,425.175,498.5,509.5,372.9146222,68.5546,182.2185
349,360,793.6507937,0.5184,1.591,399,410,609.7560976,0.8851,1.6033,449,460,483.0917874,159.5416,377.4549,499,510,392.1568627,59.1748,156.1436
349.5,360.5,832.1775312,0.314,1.3195,399.5,410.5,639.4640682,0.6528,1.1808,449.5,460.5,506.6956207,139.8635,331.0941,499.5,510.5,411.3614104,50.587,132.6
350,361,870.5975465,0.3694,1.2549,400,411,669.0997567,0.5771,0.8873,450,461,530.2482526,121.4454,287.9897,500,511,430.5283757,42.7846,111.347
350.5,361.5,908.9112824,0.3404,1.418,400.5,411.5,698.6634265,0.6368,1.0084,450.5,461.5,553.7498495,104.5413,248.8902,500.5,511.5,449.657869,35.7454,92.2741
351,362,947.1191792,0.3031,1.4548,401,412,728.1553398,0.6649,1.1899,451,462,577.2005772,89.2583,213.6101,501,512,468.75,29.4634,75.5327
351.5,362.5,985.2216749,0.333,1.4411,401.5,412.5,757.5757576,0.6878,1.2705,451.5,462.5,600.6006006,75.7124,182.5123,501.5,512.5,487.804878,23.9413,60.9787
352,363,1023.219205,0.3339,1.5199,402,413,786.9249395,0.7351,1.3163,452,463,623.950084,63.0192,151.3481,502,513,506.8226121,19.1849,48.531
352.5,363.5,1061.112203,0.3706,1.5102,402.5,413.5,816.2031439,0.6996,1.2576,452.5,463.5,647.2491909,51.3324,124.2144,502.5,513.5,525.8033106,15.137,38.0893
353,364,1098.901099,0.3439,1.545,403,414,845.410628,0.7161,1.1998,453,464,670.4980843,41.6915,100.4594,503,514,544.7470817,11.7129,29.3255
353.5,364.5,1136.586322,0.3537,1.5448,403.5,414.5,874.5476478,0.6919,1.1872,453.5,464.5,693.6969262,33.7479,81.051,503.5,514.5,563.654033,8.8951,22.0883
354,365,1174.168297,0.3462,1.5256,404,415,903.6144578,0.6395,1.1407,454,465,716.8458781,27.2641,65.6529,504,515,582.5242718,6.617,16.3071
354.5,365.5,1211.64745,0.3283,1.4557,404.5,415.5,932.6113117,0.5154,1.0857,454.5,465.5,739.9451008,22.2346,53.2442,504.5,515.5,601.3579049,4.8295,11.7922
355,366,1249.0242,0.3032,1.3906,405,416,961.5384615,0.3928,1.0699,455,466,762.9947544,16.9889,40.4818,505,516,620.1550388,3.4368,8.2572
355.5,366.5,1286.298967,0.2844,1.4267,405.5,416.5,990.3961585,0.2915,1.0865,455.5,466.5,785.9949982,12.4718,29.668,505.5,516.5,638.9157793,2.397,5.6509
356,367,1323.472168,0.3019,1.3976,406,417,1019.184652,0.2477,1.1362,456,467,808.945991,9.1658,21.7931,506,517,657.6402321,1.6347,3.753
356.5,367.5,1360.544218,0.3015,1.3797,406.5,417.5,1047.904192,0.2769,1.1286,456.5,467.5,831.8478907,6.9072,16.2618,506.5,517.5,676.3285024,1.1006,2.4686
357,368,1397.515528,0.3011,1.3766,407,418,1076.555024,0.3347,1.1298,457,468,854.7008547,5.4411,12.6196,507,518,694.980695,0.7507,1.6384
357.5,368.5,1434.386509,0.3024,1.3707,407.5,418.5,1105.137395,0.3294,1.0953,457.5,468.5,877.5050397,4.2954,9.8002,507.5,518.5,713.5969142,0.5249,1.1117
358,369,1471.157569,0.3024,1.4025,408,419,1133.651551,0.3754,1.0751,458,469,900.2606018,2.9864,6.6318,508,519,732.177264,0.3914,0.8144
358.5,369.5,1507.829113,0.3031,1.3433,408.5,419.5,1162.097735,0.3505,1.0913,458.5,469.5,922.9676961,2.1296,4.5986,508.5,519.5,750.7218479,0.3384,0.6974
359,370,1544.401544,0.3029,1.315,409,420,1190.47619,0.3389,1.089,459,470,945.6264775,1.5184,3.0968,509,520,769.2307692,0.346,0.6977
359.5,370.5,1580.875265,0.303,1.261,409.5,420.5,1218.787158,0.3042,1.0565,459.5,470.5,968.2371,1.0974,2.1853,509.5,520.5,787.7041306,0.3725,0.7667
360,371,1617.250674,0.3036,1.2449,410,421,1247.030879,0.341,1.074,460,471,990.7997169,0.9688,1.823,510,521,806.1420345,0.4015,0.8421
360.5,371.5,1653.528168,0.3038,1.2649,410.5,421.5,1275.207592,0.3513,1.0771,460.5,471.5,1013.314481,0.9017,1.666,510.5,521.5,824.5445829,0.431,0.914
361,372,1689.708141,0.3038,1.2054,411,422,1303.317536,0.3866,1.1053,461,472,1035.781544,0.9274,1.7721,511,522,842.9118774,0.4535,0.9718
361.5,372.5,1725.790988,0.304,1.1855,411.5,422.5,1331.360947,0.4242,1.056,461.5,472.5,1058.201058,0.8825,1.7157,511.5,522.5,861.2440191,0.4672,1.0178
362,373,1761.777097,0.3043,1.1713,412,423,1359.338061,0.3923,1.0428,462,473,1080.573174,0.8546,1.6735,512,523,879.541109,0.4777,1.0439
362.5,373.5,1797.666858,0.3068,1.1636,412.5,423.5,1387.249115,0.356,1.0625,462.5,473.5,1102.898041,0.8822,1.7198,512.5,523.5,897.8032474,0.4796,1.0468
363,374,1833.460657,0.3126,1.1591,413,424,1415.09434,0.2927,1.0645,463,474,1125.175809,0.9175,1.8499,513,524,916.0305344,0.4799,1.0388
363.5,374.5,1869.158879,0.2984,1.0892,413.5,424.5,1442.873969,0.2058,1.0647,463.5,474.5,1147.406627,0.947,1.9445,513.5,524.5,934.2230696,0.4763,1.0274
364,375,1904.761905,0.2871,1.1093,414,425,1470.588235,0.1742,1.1179,464,475,1169.590643,0.9773,2.0045,514,525,952.3809524,0.4667,1.0138
364.5,375.5,1940.270116,0.279,1.1782,414.5,425.5,1498.237368,0.1399,1.061,464.5,475.5,1191.728006,0.9894,2.0183,514.5,525.5,970.5042816,0.4572,1.0009
365,376,1975.683891,0.275,1.2713,415,426,1525.821596,0.1857,1.0308,465,476,1213.818861,0.981,1.9956,515,526,988.5931559,0.4483,0.9891
365.5,376.5,2011.003605,0.2742,1.3261,415.5,426.5,1553.341149,0.1894,0.9578,465.5,476.5,1235.863355,0.9843,1.9708,515.5,526.5,1006.647673,0.441,0.9742
366,377,2046.229632,0.277,1.2986,416,427,1580.796253,0.1811,0.8766,466,477,1257.861635,0.9787,1.9318,516,527,1024.667932,0.4352,0.9585
366.5,377.5,2081.362346,0.2831,1.2601,416.5,427.5,1608.187135,0.1881,0.8202,466.5,477.5,1279.813845,0.9697,1.9038,516.5,527.5,1042.654028,0.4298,0.9464
367,378,2116.402116,0.3051,1.1977,417,428,1635.514019,0.1774,0.7569,467,478,1301.72013,0.9543,1.886,517,528,1060.606061,0.4217,0.9322
367.5,378.5,2151.349311,0.3013,1.1164,417.5,428.5,1662.77713,0.2,0.7515,467.5,478.5,1323.580634,0.9428,1.8696,517.5,528.5,1078.524125,0.4161,0.9191
368,379,2186.204297,0.3024,1.0067,418,429,1689.97669,0.1977,0.7567,468,479,1345.3955,0.9341,1.8522,518,529,1096.408318,0.4124,0.907
368.5,379.5,2220.967438,0.2854,0.9381,418.5,429.5,1717.112922,0.2233,0.7804,468.5,479.5,1367.164871,0.9248,1.8219,518.5,529.5,1114.258735,0.4087,0.8947
369,380,2255.639098,0.2681,0.9837,419,430,1744.186047,0.2262,0.8688,469,480,1388.888889,0.9159,1.7956,519,530,1132.075472,0.4079,0.8831
369.5,380.5,2290.219636,0.2568,1.073,419.5,430.5,1771.196283,0.2308,0.8193,469.5,480.5,1410.567696,0.901,1.7955,519.5,530.5,1149.858624,0.4067,0.8738
370,381,2324.709411,0.2467,1.1132,420,431,1798.143852,0.2053,0.8054,470,481,1432.201432,0.894,1.7786,520,531,1167.608286,0.4016,0.8654
370.5,381.5,2359.108781,0.2367,1.1431,420.5,431.5,1825.028969,0.1832,0.8175,470.5,481.5,1453.790239,0.887,1.761,520.5,531.5,1185.324553,0.3973,0.8562
371,382,2393.4181,0.2744,1.1642,421,432,1851.851852,0.1561,0.8668,471,482,1475.334255,0.8769,1.7513,521,532,1203.007519,0.3903,0.8499
371.5,382.5,2427.637722,0.3118,1.134,421.5,432.5,1878.612717,0.1309,0.8733,471.5,482.5,1496.833621,0.8667,1.7407,521.5,532.5,1220.657277,0.3818,0.8439
372,383,2461.767997,0.3486,1.2018,422,433,1905.311778,0.117,0.8509,472,483,1518.288475,0.8671,1.7309,522,533,1238.273921,0.3742,0.8396
372.5,383.5,2495.809275,0.3639,1.1454,422.5,433.5,1931.94925,0.1071,0.8979,472.5,483.5,1539.698954,0.8689,1.7283,522.5,533.5,1255.857545,0.361,0.8343
373,384,2529.761905,0.3645,1.1656,423,434,1958.525346,0.0733,0.9468,473,484,1561.065197,0.8557,1.732,523,534,1273.40824,0.35,0.8291
373.5,384.5,2563.626231,0.3544,1.238,423.5,434.5,1985.040276,0.0585,0.9392,473.5,484.5,1582.387341,0.8533,1.734,523.5,534.5,1290.926099,0.3356,0.8262
374,385,2597.402597,0.3291,1.3379,424,435,2011.494253,0.0893,0.904,474,485,1603.665521,0.8531,1.7282,524,535,1308.411215,0.321,0.8237
374.5,385.5,2631.091347,0.3063,1.3777,424.5,435.5,2037.887486,0.1771,0.871,474.5,485.5,1624.899874,0.8458,1.712,524.5,535.5,1325.863679,0.31,0.8205
375,386,2664.69282,0.2767,1.3712,425,436,2064.220183,0.2244,0.8283,475,486,1646.090535,0.8497,1.6798,525,536,1343.283582,0.3013,0.8149
375.5,386.5,2698.207355,0.2461,1.3895,425.5,436.5,2090.492554,0.2628,0.8349,475.5,486.5,1667.237638,0.8508,1.6599,525.5,536.5,1360.671016,0.2933,0.8069
376,387,2731.63529,0.2485,1.3813,426,437,2116.704805,0.2438,0.8698,476,487,1688.341319,0.841,1.6425,526,537,1378.026071,0.2888,0.7975
376.5,387.5,2764.976959,0.3191,1.3887,426.5,437.5,2142.857143,0.2119,0.8492,476.5,487.5,1709.401709,0.8344,1.6322,526.5,537.5,1395.348837,0.2843,0.787
377,388,2798.232695,0.3293,1.4801,427,438,2168.949772,0.2412,0.8574,477,488,1730.418944,0.828,1.6198,527,538,1412.639405,0.2816,0.7758
377.5,388.5,2831.402831,0.4344,1.4471,427.5,438.5,2194.982896,0.255,0.8093,477.5,488.5,1751.393154,0.8214,1.5986,527.5,538.5,1429.897864,0.2821,0.7592
378,389,2864.487697,0.5535,1.485,428,439,2220.95672,0.2334,0.7929,478,489,1772.324472,0.8157,1.5702,528,539,1447.124304,0.2828,0.7441
378.5,389.5,2897.487621,0.7238,1.4832,428.5,439.5,2246.871445,0.2212,0.8109,478.5,489.5,1793.213029,0.7986,1.5523,528.5,539.5,1464.318814,0.2915,0.7303
379,390,2930.40293,0.9064,1.5263,429,440,2272.727273,0.2528,0.7804,479,490,1814.058957,0.7806,1.5371,529,540,1481.481481,0.2976,0.7163
379.5,390.5,2963.233949,1.0756,1.5514,429.5,440.5,2298.524404,0.2908,0.8109,479.5,490.5,1834.862385,0.7617,1.5396,529.5,540.5,1498.612396,0.3019,0.7009
380,391,2995.981001,1.2352,1.6155,430,441,2324.263039,0.2796,0.782,480,491,1855.623444,0.7491,1.5236,530,541,1515.711645,0.3053,0.6866
380.5,391.5,3028.644408,1.3277,1.6671,430.5,441.5,2349.943375,0.2392,0.7936,480.5,491.5,1876.342263,0.738,1.5126,530.5,541.5,1532.779317,0.3099,0.6735
381,392,3061.22449,1.3894,1.8038,431,442,2375.565611,0.1448,0.8232,481,492,1897.01897,0.7262,1.5059,531,542,1549.815498,0.3105,0.6615
381.5,392.5,3093.721565,1.5003,1.9686,431.5,442.5,2401.129944,0.1239,0.8269,481.5,492.5,1917.653694,0.7161,1.4881,531.5,542.5,1566.820276,0.3132,0.6514
382,393,3126.135951,1.5335,2.2338,432,443,2426.636569,0.165,0.8054,482,493,1938.246563,0.7099,1.4737,532,543,1583.793738,0.3152,0.6423
382.5,393.5,3158.467962,1.5839,2.4237,432.5,443.5,2452.085682,0.2016,0.7106,482.5,493.5,1958.797703,0.7008,1.4597,532.5,543.5,1600.735971,0.3152,0.6348
383,394,3190.717912,1.7041,2.6608,433,444,2477.477477,0.212,0.7258,483,494,1979.307242,0.6841,1.4492,533,544,1617.647059,0.3154,0.632
383.5,394.5,3222.886113,1.8352,2.8303,433.5,444.5,2502.812148,0.2138,0.7972,483.5,494.5,1999.775306,0.6826,1.4372,533.5,544.5,1634.527089,0.3134,0.6311
384,395,3254.972875,1.9373,2.9536,434,445,2528.089888,0.2039,0.8198,484,495,2020.20202,0.6794,1.4298,534,545,1651.376147,0.3102,0.631
384.5,395.5,3286.978508,1.9792,2.9034,434.5,445.5,2553.310887,0.2154,0.8585,484.5,495.5,2040.58751,0.6695,1.4086,534.5,545.5,1668.194317,0.3072,0.631
385,396,3318.903319,2.0267,2.8827,435,446,2578.475336,0.2058,0.8231,485,496,2060.9319,0.669,1.3975,535,546,1684.981685,0.3039,0.6333
385.5,396.5,3350.747613,2.0532,2.8135,435.5,446.5,2603.583427,0.1794,0.8366,485.5,496.5,2081.235314,0.6615,1.3895,535.5,546.5,1701.738335,0.2989,0.6368
386,397,3382.511695,2.0339,2.7879,436,447,2628.635347,0.1238,0.8136,486,497,2101.497876,0.6537,1.3824,536,547,1718.464351,0.2947,0.64
386.5,397.5,3414.195867,2.0043,2.6676,436.5,447.5,2653.631285,0.1328,0.7943,486.5,497.5,2121.71971,0.6525,1.3693,536.5,547.5,1735.159817,0.2876,0.6465
387,398,3445.800431,1.9335,2.7208,437,448,2678.571429,0.1361,0.8152,487,498,2141.900937,0.646,1.346,537,548,1751.824818,0.2807,0.6529
387.5,398.5,3477.325686,1.8233,2.5716,437.5,448.5,2703.455964,0.1636,0.862,487.5,498.5,2162.041681,0.6381,1.3376,537.5,548.5,1768.459435,0.2707,0.6559
388,399,3508.77193,1.7776,2.6005,438,449,2728.285078,0.1905,0.9317,488,499,2182.142062,0.6305,1.3263,538,549,1785.063752,0.2627,0.6616
388.5,399.5,3540.13946,1.6587,2.5552,438.5,449.5,2753.058954,0.2078,0.9846,488.5,499.5,2202.202202,0.6214,1.3205,538.5,549.5,1801.637853,0.2585,0.6651
389,400,3571.428571,1.5398,2.4583,439,450,2777.777778,0.1995,1.0109,489,500,2222.222222,0.6184,1.3057,539,550,1818.181818,0.2469,0.6655
389.5,400.5,3602.639558,1.4811,2.2205,439.5,450.5,2802.441731,0.1633,0.9886,489.5,500.5,2242.202242,0.622,1.3,539.5,550.5,1834.695731,0.2379,0.663
390,401,3633.772711,1.4899,2.1365,440,451,2827.050998,0.2176,0.8785,490,501,2262.142382,0.627,1.2823,540,551,1851.179673,0.2285,0.66
390.5,401.5,3664.828322,1.5401,2.0226,440.5,451.5,2851.605759,0.2589,0.8859,490.5,501.5,2282.042761,0.6271,1.2665,540.5,551.5,1867.633726,0.2189,0.6549
391,402,3695.806681,1.5126,1.9022,441,452,2876.106195,0.234,0.8769,491,502,2301.903497,0.6213,1.2537,541,552,1884.057971,0.2121,0.6469
391.5,402.5,3726.708075,1.5216,1.7572,441.5,452.5,2900.552486,0.2654,0.8515,491.5,502.5,2321.72471,0.6169,1.2353,541.5,552.5,1900.452489,0.2086,0.6377
392,403,3757.53279,1.4903,1.7008,442,453,2924.944812,0.2821,0.8845,492,503,2341.506516,0.6173,1.2324,542,553,1916.81736,0.204,0.6259
392.5,403.5,3788.281112,1.4571,1.5244,442.5,453.5,2949.283352,0.3244,0.9608,492.5,503.5,2361.249035,0.6132,1.2298,542.5,553.5,1933.152665,0.2005,0.616
393,404,3818.953324,1.2856,1.5637,443,454,2973.568282,0.3913,1.0134,493,504,2380.952381,0.6108,1.2295,543,554,1949.458484,0.1989,0.6055
393.5,404.5,3849.549709,1.1286,1.5531,443.5,454.5,2997.79978,0.445,1.062,493.5,504.5,2400.616672,0.611,1.2329,543.5,554.5,1965.734896,0.2002,0.5931
394,405,3880.070547,0.9545,1.5323,444,455,3021.978022,0.4874,1.1115,494,505,2420.242024,0.6066,1.2377,544,555,1981.981982,0.2016,0.5823
394.5,405.5,3910.516118,0.7798,1.4724,444.5,455.5,3046.103183,0.5577,1.1673,494.5,505.5,2439.828553,0.602,1.219,544.5,555.5,1998.19982,0.2031,0.5734
395,406,3940.8867,0.6535,1.5485,445,456,3070.175439,0.6805,1.1691,495,506,2459.376372,0.6003,1.2134,545,556,2014.388489,0.2063,0.5654
395.5,406.5,3971.182569,0.5219,1.5851,445.5,456.5,3094.194962,0.7621,1.2325,495.5,506.5,2478.885598,0.6021,1.2088,545.5,556.5,2030.548068,0.2107,0.558
396,407,4001.404001,0.4127,1.5259,446,457,3118.161926,0.831,1.2635,496,507,2498.356345,0.6057,1.2165,546,557,2046.678636,0.216,0.5537
396.5,407.5,4031.551271,0.4463,1.4768,446.5,457.5,3142.076503,0.9382,1.2122,496.5,507.5,2517.788725,0.6057,1.2193,546.5,557.5,2062.780269,0.2215,0.5496
397,408,4061.62465,0.4705,1.4206,447,458,3165.938865,0.9811,1.1778,497,508,2537.182852,0.6041,1.2152,547,558,2078.853047,0.2267,0.5452
397.5,408.5,4091.62441,0.5015,1.4106,447.5,458.5,3189.749182,1.0234,1.1733,497.5,508.5,2556.53884,0.608,1.2254,547.5,558.5,2094.897046,0.2307,0.5406
398,409,4121.550821,0.4712,1.3862,448,459,3213.507625,1.0767,1.1632,498,509,2575.8568,0.6064,1.2234,548,559,2110.912343,0.2348,0.5381
398.5,409.5,4151.404151,0.5362,1.312,448.5,459.5,3237.214363,1.1012,1.1633,498.5,509.5,2595.136844,0.6084,1.2213,548.5,559.5,2126.899017,0.2393,0.5346
399,410,4181.184669,0.4996,1.3024,449,460,3260.869565,1.1186,1.1814,499,510,2614.379085,0.6087,1.2218,549,560,2142.857143,0.2408,0.533
399.5,410.5,4210.89264,0.4312,1.3381,449.5,460.5,3284.473398,1.1337,1.2024,499.5,510.5,2633.583633,0.61,1.2292,549.5,560.5,2158.786798,0.2434,0.5303
400,411,4240.528328,0.4039,1.4481,450,461,3308.02603,1.087,1.2181,500,511,2652.750598,0.605,1.2258,550,561,2174.688057,0.2441,0.5302
400.5,411.5,4270.091998,0.3339,1.4788,450.5,461.5,3331.527627,1.0994,1.2479,500.5,511.5,2671.880091,0.6004,1.2228,550.5,561.5,2190.560997,0.2459,0.5292
401,412,4299.583911,0.3067,1.4487,451,462,3354.978355,1.1358,1.2764,501,512,2690.972222,0.5952,1.211,551,562,2206.405694,0.2475,0.5269
401.5,412.5,4329.004329,0.3325,1.4628,451.5,462.5,3378.378378,1.1192,1.258,501.5,512.5,2710.0271,0.5991,1.2088,551.5,562.5,2222.222222,0.2477,0.5247
402,413,4358.353511,0.3287,1.4718,452,463,3401.727862,1.1087,1.2516,502,513,2729.044834,0.6045,1.2174,552,563,2238.010657,0.2473,0.5207
402.5,413.5,4387.631715,0.3137,1.5087,452.5,463.5,3425.026969,1.0934,1.2654,502.5,513.5,2748.025533,0.5991,1.2072,552.5,563.5,2253.771074,0.2483,0.5185
403,414,4416.839199,0.306,1.4609,453,464,3448.275862,1.092,1.2833,503,514,2766.969304,0.6028,1.1922,553,564,2269.503546,0.2487,0.5156
403.5,414.5,4445.976219,0.3305,1.4657,453.5,464.5,3471.474704,1.0136,1.2734,503.5,514.5,2785.876255,0.6074,1.1828,553.5,564.5,2285.208149,0.2497,0.5129
404,415,4475.043029,0.3228,1.4799,454,465,3494.623656,0.9489,1.2389,504,515,2804.746494,0.6119,1.1806,554,565,2300.884956,0.2491,0.5139
404.5,415.5,4504.039883,0.3209,1.513,454.5,465.5,3517.722879,0.8788,1.2374,504.5,515.5,2823.580127,0.613,1.167,554.5,565.5,2316.534041,0.2472,0.5086
405,416,4532.967033,0.3154,1.4161,455,466,3540.772532,0.8619,1.2517,505,516,2842.377261,0.6218,1.1672,555,566,2332.155477,0.2464,0.5068
405.5,416.5,4561.82473,0.3013,1.3791,455.5,466.5,3563.772776,0.8501,1.2119,505.5,516.5,2861.138002,0.633,1.172,555.5,566.5,2347.749338,0.2462,0.5057
406,417,4590.613224,0.3019,1.3678,456,467,3586.723769,0.8654,1.1536,506,517,2879.862454,0.6487,1.1881,556,567,2363.315697,0.2469,0.5042
406.5,417.5,4619.332763,0.3343,1.3218,456.5,467.5,3609.625668,0.8134,1.0709,506.5,517.5,2898.550725,0.6594,1.1961,556.5,567.5,2378.854626,0.2452,0.5007
407,418,4647.983595,0.357,1.3447,457,468,3632.478632,0.7928,0.9829,507,518,2917.202917,0.6758,1.2106,557,568,2394.366197,0.2424,0.4956
407.5,418.5,4676.565967,0.3707,1.3761,457.5,468.5,3655.282818,0.8106,0.9639,507.5,518.5,2935.819136,0.6884,1.2263,557.5,568.5,2409.850484,0.2411,0.4943
408,419,4705.080123,0.3772,1.4698,458,469,3678.03838,0.7591,0.9243,508,519,2954.399486,0.7063,1.2362,558,569,2425.307557,0.2406,0.4943
408.5,419.5,4733.526307,0.377,1.577,458.5,469.5,3700.745474,0.6134,0.8511,508.5,519.5,2972.94407,0.7325,1.2586,558.5,569.5,2440.737489,0.2398,0.4935
409,420,4761.904762,0.3699,1.5864,459,470,3723.404255,0.4914,0.8009,509,520,2991.452991,0.7567,1.2905,559,570,2456.140351,0.2383,0.4929
409.5,420.5,4790.21573,0.3675,1.6079,459.5,470.5,3746.014878,0.3773,0.8109,509.5,520.5,3009.926353,0.7784,1.3141,559.5,570.5,2471.516214,0.2389,0.4898
410,421,4818.45945,0.3283,1.4983,460,471,3768.577495,0.2878,0.8668,510,521,3028.364257,0.7997,1.3253,560,571,2486.865149,0.2385,0.4877
410.5,421.5,4846.636163,0.2897,1.4785,460.5,471.5,3791.092259,0.1961,0.8054,510.5,521.5,3046.766805,0.8247,1.3448,560.5,571.5,2502.187227,0.2359,0.4838
411,422,4874.746107,0.2749,1.4836,461,472,3813.559322,0.1639,0.747,511,522,3065.1341,0.8471,1.3714,561,572,2517.482517,0.2334,0.4798
411.5,422.5,4902.789518,0.2826,1.4448,461.5,472.5,3835.978836,0.1203,0.712,511.5,522.5,3083.466241,0.8686,1.3949,561.5,572.5,2532.751092,0.2308,0.4776
412,423,4930.766633,0.2811,1.4328,462,473,3858.350951,0.1352,0.6972,512,523,3101.763331,0.8874,1.4066,562,573,2547.993019,0.23,0.4742
412.5,423.5,4958.677686,0.2821,1.3946,462.5,473.5,3880.675818,0.2127,0.6908,512.5,523.5,3120.02547,0.9051,1.4145,562.5,573.5,2563.20837,0.227,0.471
413,424,4986.522911,0.2867,1.4455,463,474,3902.953586,0.2351,0.5835,513,524,3138.252757,0.9229,1.4284,563,574,2578.397213,0.2204,0.4691
413.5,424.5,5014.302541,0.296,1.4227,463.5,474.5,3925.184405,0.2467,0.5364,513.5,524.5,3156.445292,0.9367,1.4443,563.5,574.5,2593.559617,0.2131,0.4671
414,425,5042.016807,0.31,1.3636,464,475,3947.368421,0.257,0.503,514,525,3174.603175,0.9455,1.465,564,575,2608.695652,0.2051,0.466
414.5,425.5,5069.665939,0.326,1.2894,464.5,475.5,3969.505783,0.2786,0.5081,514.5,525.5,3192.726504,0.9482,1.4696,564.5,575.5,2623.805387,0.1966,0.4632
415,426,5097.250168,0.3148,1.1932,465,476,3991.596639,0.2497,0.5715,515,526,3210.815378,0.9631,1.4794,565,576,2638.888889,0.1871,0.4639
415.5,426.5,5124.76972,0.31,1.152,465.5,476.5,4013.641133,0.2148,0.5389,515.5,526.5,3228.869896,0.9763,1.4903,565.5,576.5,2653.946227,0.1793,0.463
416,427,5152.224824,0.3065,1.1469,466,477,4035.639413,0.1971,0.5786,516,527,3246.890154,0.9954,1.5043,566,577,2668.97747,0.1735,0.4627
416.5,427.5,5179.615706,0.3297,1.1443,466.5,477.5,4057.591623,0.1802,0.5711,516.5,527.5,3264.876251,1.0108,1.5139,566.5,577.5,2683.982684,0.1676,0.4605
417,428,5206.94259,0.3469,1.2028,467,478,4079.497908,0.1796,0.5633,517,528,3282.828283,1.0181,1.5232,567,578,2698.961938,0.1626,0.4598
417.5,428.5,5234.205701,0.3572,1.1989,467.5,478.5,4101.358412,0.1783,0.5083,517.5,528.5,3300.746347,1.0247,1.5274,567.5,578.5,2713.915298,0.1582,0.464
418,429,5261.405261,0.362,1.2496,468,479,4123.173278,0.1759,0.4765,518,529,3318.63054,1.0405,1.5289,568,579,2728.842832,0.1559,0.4655
418.5,429.5,5288.541493,0.3614,1.3301,468.5,479.5,4144.942649,0.1655,0.5605,518.5,529.5,3336.480957,1.0555,1.5467,568.5,579.5,2743.744607,0.1544,0.4675
419,430,5315.614618,0.3558,1.4078,469,480,4166.666667,0.1654,0.561,519,530,3354.297694,1.0636,1.5569,569,580,2758.62069,0.1533,0.469
419.5,430.5,5342.624855,0.3584,1.4535,469.5,480.5,4188.345473,0.1893,0.5667,519.5,530.5,3372.080846,1.0734,1.5629,569.5,580.5,2773.471146,0.1525,0.4709
420,431,5369.572423,0.3277,1.4298,470,481,4209.97921,0.1917,0.5316,520,531,3389.830508,1.0801,1.5588,570,581,2788.296041,0.1507,0.471
420.5,431.5,5396.45754,0.2982,1.419,470.5,481.5,4231.568017,0.2,0.5349,520.5,531.5,3407.546775,1.0813,1.56,570.5,581.5,2803.095443,0.1482,0.4681
421,432,5423.280423,0.282,1.3656,471,482,4253.112033,0.2144,0.5256,521,532,3425.229741,1.0849,1.5573,571,582,2817.869416,0.1492,0.4674
421.5,432.5,5450.041288,0.2778,1.3283,471.5,482.5,4274.611399,0.2221,0.4096,521.5,532.5,3442.879499,1.0891,1.5457,571.5,582.5,2832.618026,0.1498,0.4686
422,433,5476.74035,0.2817,1.3567,472,483,4296.066253,0.2274,0.3139,522,533,3460.496143,1.0897,1.5452,572,583,2847.341338,0.1502,0.4698
422.5,433.5,5503.377822,0.2663,1.3078,472.5,483.5,4317.476732,0.2049,0.2306,522.5,533.5,3478.079767,1.0721,1.5356,572.5,583.5,2862.039417,0.1484,0.4699
423,434,5529.953917,0.2289,1.2745,473,484,4338.842975,0.1923,0.225,523,534,3495.630462,1.0566,1.5303,573,584,2876.712329,0.1478,0.4713
423.5,434.5,5556.468848,0.2483,1.2929,473.5,484.5,4360.165119,0.1626,0.2597,523.5,534.5,3513.148321,1.0546,1.5271,573.5,584.5,2891.360137,0.1473,0.4711
424,435,5582.922824,0.2842,1.3421,474,485,4381.443299,0.144,0.2272,524,535,3530.633437,1.0444,1.5151,574,585,2905.982906,0.1475,0.4716
424.5,435.5,5609.316057,0.3034,1.3536,474.5,485.5,4402.677652,0.1295,0.1426,524.5,535.5,3548.085901,1.0249,1.5023,574.5,585.5,2920.5807,0.1466,0.4738
425,436,5635.648755,0.2972,1.3792,475,486,4423.868313,0.1207,0.1319,525,536,3565.505804,1.0182,1.4917,575,586,2935.153584,0.1458,0.4753
425.5,436.5,5661.921126,0.31,1.3819,475.5,486.5,4445.015416,0.1176,0.2083,525.5,536.5,3582.893238,0.9998,1.4742,575.5,586.5,2949.70162,0.1477,0.4763
426,437,5688.133377,0.3265,1.3095,476,487,4466.119097,0.1,0.2886,526,537,3600.248293,0.9806,1.4658,576,587,2964.224872,0.1512,0.4742
426.5,437.5,5714.285714,0.3224,1.2354,476.5,487.5,4487.179487,0.0845,0.3413,526.5,537.5,3617.571059,0.9578,1.4407,576.5,587.5,2978.723404,0.1534,0.4722
427,438,5740.378343,0.3212,1.2445,477,488,4508.196721,0.0733,0.3354,527,538,3634.861627,0.9248,1.4107,577,588,2993.197279,0.1545,0.4738
427.5,438.5,5766.411468,0.2915,1.1729,477.5,488.5,4529.170931,0.0641,0.3651,527.5,538.5,3652.120087,0.9078,1.3984,577.5,588.5,3007.646559,0.1556,0.476
428,439,5792.385291,0.2626,1.1301,478,489,4550.102249,0.0719,0.4449,528,539,3669.346526,0.8868,1.3733,578,589,3022.071307,0.1598,0.4763
428.5,439.5,5818.300016,0.2903,1.0668,478.5,489.5,4570.990807,0.063,0.4919,528.5,539.5,3686.541036,0.8663,1.3624,578.5,589.5,3036.471586,0.1645,0.4783
429,440,5844.155844,0.3039,1.1055,479,490,4591.836735,0.0809,0.5149,529,540,3703.703704,0.8417,1.3342,579,590,3050.847458,0.1688,0.4815
429.5,440.5,5869.952976,0.2965,1.139,479.5,490.5,4612.640163,0.0915,0.4884,529.5,540.5,3720.834618,0.8322,1.3073,579.5,590.5,3065.198984,0.172,0.4809
430,441,5895.69161,0.3131,1.322,480,491,4633.401222,0.1072,0.4793,530,541,3737.933867,0.8065,1.2698,580,591,3079.526227,0.1761,0.479
430.5,441.5,5921.371946,0.3098,1.4184,480.5,491.5,4654.120041,0.1156,0.4383,530.5,541.5,3755.001539,0.7778,1.2422,580.5,591.5,3093.829248,0.1807,0.4774
431,442,5946.994182,0.3124,1.3691,481,492,4674.796748,0.1084,0.4222,531,542,3772.03772,0.7607,1.2152,581,592,3108.108108,0.1878,0.4792
431.5,442.5,5972.558515,0.3034,1.3377,481.5,492.5,4695.431472,0.1085,0.3327,531.5,542.5,3789.042499,0.7392,1.1883,581.5,592.5,3122.362869,0.1922,0.4792
432,443,5998.06514,0.2947,1.28,482,493,4716.024341,0.1136,0.2294,532,543,3806.015961,0.7077,1.1605,582,593,3136.593592,0.1985,0.4803
432.5,443.5,6023.514254,0.2923,1.1292,482.5,493.5,4736.575481,0.114,0.1721,532.5,543.5,3822.958193,0.6809,1.1328,582.5,593.5,3150.800337,0.2041,0.4802
433,444,6048.906049,0.2918,1.111,483,494,4757.08502,0.097,0.1488,533,544,3839.869281,0.6651,1.1224,583,594,3164.983165,0.2113,0.4815
433.5,444.5,6074.24072,0.2967,0.9933,483.5,494.5,4777.553084,0.1044,0.1373,533.5,544.5,3856.749311,0.6575,1.105,583.5,594.5,3179.142136,0.2183,0.4837
434,445,6099.518459,0.3052,0.979,484,495,4797.979798,0.1276,0.1861,534,545,3873.598369,0.6375,1.0928,584,595,3193.277311,0.2268,0.4874
434.5,445.5,6124.739458,0.3163,1.0287,484.5,495.5,4818.365288,0.1425,0.2307,534.5,545.5,3890.416539,0.6131,1.085,584.5,595.5,3207.388749,0.2368,0.4941
435,446,6149.903908,0.3337,1.1347,485,496,4838.709677,0.1388,0.243,535,546,3907.203907,0.592,1.0746,585,596,3221.47651,0.2452,0.4988
435.5,446.5,6175.011998,0.331,1.1848,485.5,496.5,4859.013092,0.141,0.2774,535.5,546.5,3923.960557,0.5605,1.0595,585.5,596.5,3235.540654,0.2532,0.4995
436,447,6200.063918,0.3234,1.1566,486,497,4879.275654,0.1539,0.3018,536,547,3940.686573,0.5347,1.0507,586,597,3249.58124,0.2606,0.4996
436.5,447.5,6225.059856,0.307,1.1352,486.5,497.5,4899.497487,0.1624,0.2795,536.5,547.5,3957.38204,0.5166,1.025,586.5,597.5,3263.598326,0.2668,0.5028
437,448,6250,0.2596,1.1544,487,498,4919.678715,0.1585,0.3112,537,548,3974.04704,0.5094,1.0187,587,598,3277.591973,0.2735,0.5075
437.5,448.5,6274.884536,0.279,1.1621,487.5,498.5,4939.819458,0.1442,0.3213,537.5,548.5,3990.681657,0.5063,1.0101,587.5,598.5,3291.562239,0.2788,0.5121
438,449,6299.713649,0.2974,1.1454,488,499,4959.91984,0.1331,0.3128,538,549,4007.285974,0.4932,0.9871,588,599,3305.509182,0.2863,0.5148
438.5,449.5,6324.487526,0.3153,1.0911,488.5,499.5,4979.97998,0.1412,0.2993,538.5,549.5,4023.860075,0.4879,0.9767,588.5,599.5,3319.432861,0.2943,0.5172
439,450,6349.206349,0.3313,1.1309,489,500,5000,0.1765,0.305,539,550,4040.40404,0.4848,0.9652,589,600,3333.333333,0.2976,0.5175
439.5,450.5,6373.870303,0.3485,1.1796,489.5,500.5,5019.98002,0.1803,0.2977,539.5,550.5,4056.917953,0.4927,0.9479,589.5,600.5,3347.210658,0.298,0.5139
440,451,6398.479569,0.3657,1.1677,490,501,5039.92016,0.1876,0.2961,540,551,4073.401896,0.4771,0.9307,590,601,3361.064892,0.3,0.511
440.5,451.5,6423.03433,0.3747,1.1457,490.5,501.5,5059.820538,0.1986,0.2712,540.5,551.5,4089.855948,0.4688,0.912,590.5,601.5,3374.896093,0.2988,0.5096
441,452,6447.534766,0.3588,1.1753,491,502,5079.681275,0.2218,0.2428,541,552,4106.280193,0.4694,0.8931,591,602,3388.704319,0.2969,0.506
441.5,452.5,6471.981058,0.3313,1.0402,491.5,502.5,5099.502488,0.2228,0.2189,541.5,552.5,4122.674711,0.4623,0.8678,591.5,602.5,3402.489627,0.2903,0.4966
442,453,6496.373384,0.2956,1.0854,492,503,5119.284294,0.2035,0.2647,542,553,4139.039582,0.4523,0.846,592,603,3416.252073,0.2843,0.4889
442.5,453.5,6520.711923,0.3237,1.0593,492.5,503.5,5139.026812,0.189,0.2782,542.5,553.5,4155.374887,0.4526,0.8409,592.5,603.5,3429.991715,0.2755,0.4828
443,454,6544.996853,0.3225,1.0064,493,504,5158.730159,0.1999,0.2566,543,554,4171.680706,0.4402,0.83,593,604,3443.708609,0.2658,0.4781
443.5,454.5,6569.228351,0.3188,1.0483,493.5,504.5,5178.39445,0.1815,0.2264,543.5,554.5,4187.957119,0.4342,0.8266,593.5,604.5,3457.402812,0.2555,0.4737
444,455,6593.406593,0.3168,1.0762,494,505,5198.019802,0.197,0.2137,544,555,4204.204204,0.4265,0.8317,594,605,3471.07438,0.2467,0.4702
444.5,455.5,6617.531755,0.317,1.1593,494.5,505.5,5217.60633,0.1857,0.2072,544.5,555.5,4220.422042,0.4168,0.8365,594.5,605.5,3484.723369,0.2371,0.47
445,456,6641.60401,0.3203,1.2504,495,506,5237.15415,0.2069,0.2124,545,556,4236.610711,0.4048,0.8273,595,606,3498.349835,0.2247,0.4668
445.5,456.5,6665.623533,0.3264,1.225,495.5,506.5,5256.663376,0.2138,0.2043,545.5,556.5,4252.770291,0.3955,0.818,595.5,606.5,3511.953833,0.214,0.4651
446,457,6689.590497,0.3112,1.1836,496,507,5276.134122,0.2226,0.2131,546,557,4268.900858,0.3928,0.8106,596,607,3525.53542,0.204,0.4678
446.5,457.5,6713.505074,0.3,1.0309,496.5,507.5,5295.566502,0.228,0.245,546.5,557.5,4285.002491,0.387,0.8022,596.5,607.5,3539.09465,0.1937,0.4716
447,458,6737.367436,0.2953,1.0111,497,508,5314.96063,0.2148,0.2781,547,558,4301.075269,0.3814,0.7946,597,608,3552.631579,0.1866,0.4752
447.5,458.5,6761.177754,0.2929,0.9096,497.5,508.5,5334.316618,0.2125,0.2782,547.5,558.5,4317.119268,0.382,0.7893,597.5,608.5,3566.146261,0.1784,0.4785
448,459,6784.936197,0.2952,0.9532,498,509,5353.634578,0.2077,0.2428,548,559,4333.134566,0.3756,0.7852,598,609,3579.638752,0.1723,0.4805
448.5,459.5,6808.642935,0.2965,0.9498,498.5,509.5,5372.914622,0.2007,0.2215,548.5,559.5,4349.121239,0.3727,0.7799,598.5,609.5,3593.109106,0.1647,0.4829
449,460,6832.298137,0.3019,1.0544,499,510,5392.156863,0.1928,0.1955,549,560,4365.079365,0.3687,0.7552,599,610,3606.557377,0.1573,0.4858
449.5,460.5,6855.90197,0.3212,1.1092,499.5,510.5,5411.36141,0.2101,0.1475,549.5,560.5,4381.00902,0.3293,0.6941,599.5,610.5,3619.98362,0.1533,0.489
450,461,6879.454602,0.315,1.343,500,511,5430.528376,0.267,0.137,550,561,4396.910279,0.318,0.751,600,611,3633.387889,0.1497,0.489
,,,,,,,,,,,,,,,600.5,611.5,3646.770237,0.144,0.4904
,,,,,,,,,,,,,,,601,612,3660.130719,0.1395,0.4849
,,,,,,,,,,,,,,,601.5,612.5,3673.469388,0.1342,0.4737
,,,,,,,,,,,,,,,602,613,3686.786297,0.1293,0.4649
,,,,,,,,,,,,,,,602.5,613.5,3700.0815,0.1235,0.4558
,,,,,,,,,,,,,,,603,614,3713.355049,0.1188,0.4437
,,,,,,,,,,,,,,,603.5,614.5,3726.606998,0.1172,0.4299
,,,,,,,,,,,,,,,604,615,3739.837398,0.1148,0.4176
,,,,,,,,,,,,,,,604.5,615.5,3753.046304,0.1141,0.406
,,,,,,,,,,,,,,,605,616,3766.233766,0.1144,0.3937
,,,,,,,,,,,,,,,605.5,616.5,3779.399838,0.1238,0.3832
,,,,,,,,,,,,,,,606,617,3792.544571,0.1303,0.3712
,,,,,,,,,,,,,,,606.5,617.5,3805.668016,0.1356,0.3598
,,,,,,,,,,,,,,,607,618,3818.770227,0.1405,0.3483
,,,,,,,,,,,,,,,607.5,618.5,3831.851253,0.1482,0.3385
,,,,,,,,,,,,,,,608,619,3844.911147,0.1564,0.3305
,,,,,,,,,,,,,,,608.5,619.5,3857.94996,0.1673,0.3231
,,,,,,,,,,,,,,,609,620,3870.967742,0.1786,0.3159
,,,,,,,,,,,,,,,609.5,620.5,3883.964545,0.2016,0.3034
,,,,,,,,,,,,,,,610,621,3896.940419,0.216,0.286