(2)comp,(2)comp_ajuste,(2)comp_raman,(2)10-5,(2)5-5,(3comp,(3)comp_ajuste,(3)comp_raman,(3)10-5,(3)5-5,(3)10-10,(4)comp,(4)comp_ajuste,(4)comp_raman,(4)10-10,(4)10-5
400,411.3,686.846584,6.63,0.923,450,461.3,544.3553243,8.369,0.678,99.448,550,560,2142.857143,0.236,0.014
400.5,411.8,716.3671685,5.3969,0.9242,450.5,461.8,567.8263799,6.6254,0.5012,88.8169,550.5,560.5,2158.786798,0.2475,0.0417
401,412.3,745.8161533,4.0593,0.8493,451,462.3,591.2466652,4.978,0.4311,75.5413,551,561,2174.688057,0.2684,0.0378
401.5,412.8,775.1937984,3.0935,0.8041,451.5,462.8,614.616345,3.7315,0.3886,63.9201,551.5,561.5,2190.560997,0.2727,0.0358
402,413.3,804.5003629,2.286,0.7697,452,463.3,637.9355829,2.6579,0.3557,54.1225,552,562,2206.405694,0.276,0.0339
402.5,413.8,833.7361044,1.2956,0.7178,452.5,463.8,661.2045422,1.3513,0.3289,45.7971,552.5,562.5,2222.222222,0.2766,0.0303
403,414.3,862.9012793,0.8793,0.7241,453,464.3,684.4233853,0.789,0.3295,38.5869,553,563,2238.010657,0.2779,0.0239
403.5,414.8,891.9961427,0.7429,0.7578,453.5,464.8,707.5922739,0.5334,0.3247,32.0769,553.5,563.5,2253.771074,0.2765,0.0253
404,415.3,921.0209487,0.6988,0.7876,454,465.3,730.711369,0.4073,0.3065,25.7219,554,564,2269.503546,0.2755,0.0293
404.5,415.8,949.97595,0.6726,0.7869,454.5,465.8,753.7808311,0.3803,0.2922,18.8305,554.5,564.5,2285.208149,0.2748,0.0304
405,416.3,978.861398,0.6712,0.787,455,466.3,776.8008197,0.358,0.2848,10.2384,555,565,2300.884956,0.2771,0.0268
405.5,416.8,1007.677543,0.659,0.7863,455.5,466.8,799.7714939,0.3708,0.2808,6.8766,555.5,565.5,2316.534041,0.2723,0.027
406,417.3,1036.424635,0.6575,0.774,456,467.3,822.6930119,0.3717,0.2697,4.8113,556,566,2332.155477,0.2707,0.0263
406.5,417.8,1065.10292,0.6649,0.7493,456.5,467.8,845.5655313,0.3699,0.2556,3.3174,556.5,566.5,2347.749338,0.2643,0.0256
407,418.3,1093.712646,0.6643,0.6943,457,468.3,868.3892092,0.3569,0.2521,2.3846,557,567,2363.315697,0.261,0.0167
407.5,418.8,1122.254059,0.6585,0.6709,457.5,468.8,891.1642017,0.3452,0.2556,1.6598,557.5,567.5,2378.854626,0.2585,0.0156
408,419.3,1150.727403,0.6543,0.6624,458,469.3,913.8906646,0.3349,0.2122,1.3085,558,568,2394.366197,0.2531,0.0142
408.5,419.8,1179.13292,0.6535,0.6675,458.5,469.8,936.5687527,0.3216,0.1839,1.0802,558.5,568.5,2409.850484,0.2532,0.0147
409,420.3,1207.470854,0.6512,0.6261,459,470.3,959.1986203,0.3096,0.171,1.0149,559,569,2425.307557,0.2507,0.0165
409.5,420.8,1235.741445,0.6492,0.5994,459.5,470.8,981.780421,0.2909,0.1789,1.0487,559.5,569.5,2440.737489,0.2505,0.0113
410,421.3,1263.944932,0.6569,0.6548,460,471.3,1004.314308,0.2794,0.1977,1.0964,560,570,2456.140351,0.2508,0.0117
410.5,421.8,1292.081555,0.6542,0.661,460.5,471.8,1026.800433,0.2692,0.2006,1.1592,560.5,570.5,2471.516214,0.2469,0.0158
411,422.3,1320.151551,0.653,0.6523,461,472.3,1049.238949,0.2574,0.1969,1.1974,561,571,2486.865149,0.2472,0.0173
411.5,422.8,1348.155156,0.6461,0.6386,461.5,472.8,1071.630006,0.2479,0.19,1.2406,561.5,571.5,2502.187227,0.2475,0.0234
412,423.3,1376.092606,0.6373,0.6051,462,473.3,1093.973754,0.2426,0.1764,1.2746,562,572,2517.482517,0.2446,0.025
412.5,423.8,1403.964134,0.6279,0.5657,462.5,473.8,1116.270344,0.2437,0.17,1.2917,562.5,572.5,2532.751092,0.2409,0.0299
413,424.3,1431.769974,0.624,0.5394,463,474.3,1138.519924,0.2446,0.1525,1.2983,563,573,2547.993019,0.2398,0.0288
413.5,424.8,1459.510358,0.6269,0.5449,463.5,474.8,1160.722643,0.2457,0.1414,1.2943,563.5,573.5,2563.20837,0.2385,0.0258
414,425.3,1487.185516,0.633,0.5128,464,475.3,1182.87865,0.2468,0.1331,1.2818,564,574,2578.397213,0.2389,0.0216
414.5,425.8,1514.795679,0.6274,0.4951,464.5,475.8,1204.98809,0.2432,0.1291,1.2615,564.5,574.5,2593.559617,0.2407,0.0134
415,426.3,1542.341074,0.6366,0.5424,465,476.3,1227.051112,0.2388,0.1244,1.2527,565,575,2608.695652,0.2363,0.0126
415.5,426.8,1569.821931,0.6337,0.5454,465.5,476.8,1249.06786,0.2386,0.1112,1.2434,565.5,575.5,2623.805387,0.2321,0.0117
416,427.3,1597.238474,0.6322,0.5688,466,477.3,1271.03848,0.2359,0.093,1.232,566,576,2638.888889,0.2304,0.013
416.5,427.8,1624.59093,0.6287,0.59,466.5,477.8,1292.963118,0.233,0.0857,1.2142,566.5,576.5,2653.946227,0.2311,0.019
417,428.3,1651.879524,0.6258,0.5873,467,478.3,1314.841917,0.2347,0.0731,1.2002,567,577,2668.97747,0.2336,0.0221
417.5,428.8,1679.104478,0.6298,0.5733,467.5,478.8,1336.675021,0.2349,0.0663,1.1815,567.5,577.5,2683.982684,0.235,0.024
418,429.3,1706.266014,0.6292,0.5647,468,479.3,1358.462573,0.235,0.0703,1.1685,568,578,2698.961938,0.2372,0.0221
418.5,429.8,1733.364356,0.6308,0.576,468.5,479.8,1380.204715,0.2351,0.0738,1.1576,568.5,578.5,2713.915298,0.2382,0.0191
419,430.3,1760.399721,0.6328,0.5417,469,480.3,1401.901589,0.2356,0.0748,1.1463,569,579,2728.842832,0.2365,0.0197
419.5,430.8,1787.372331,0.6117,0.4992,469.5,480.8,1423.553337,0.2358,0.0866,1.1369,569.5,579.5,2743.744607,0.2349,0.0216
420,431.3,1814.282402,0.6032,0.5348,470,481.3,1445.160099,0.2368,0.099,1.1266,570,580,2758.62069,0.2324,0.0296
420.5,431.8,1841.130153,0.5792,0.5491,470.5,481.8,1466.722015,0.2379,0.1293,1.1194,570.5,580.5,2773.471146,0.2306,0.0327
421,432.3,1867.915799,0.563,0.5835,471,482.3,1488.239224,0.2379,0.1467,1.1153,571,581,2788.296041,0.231,0.0354
421.5,432.8,1894.639556,0.5622,0.5899,471.5,482.8,1509.711866,0.2385,0.1631,1.108,571.5,581.5,2803.095443,0.228,0.0355
422,433.3,1921.301639,0.5609,0.6034,472,483.3,1531.140079,0.2391,0.1683,1.0951,572,582,2817.869416,0.2276,0.0365
422.5,433.8,1947.902259,0.5731,0.6256,472.5,483.8,1552.524,0.2385,0.194,1.081,572.5,582.5,2832.618026,0.2239,0.0341
423,434.3,1974.44163,0.5775,0.6788,473,484.3,1573.863767,0.2384,0.1993,1.0656,573,583,2847.341338,0.2199,0.0327
423.5,434.8,2000.919963,0.5954,0.7396,473.5,484.8,1595.159516,0.2392,0.1962,1.0519,573.5,583.5,2862.039417,0.2163,0.032
424,435.3,2027.337468,0.6076,0.7446,474,485.3,1616.411384,0.239,0.202,1.038,574,584,2876.712329,0.214,0.0325
424.5,435.8,2053.694355,0.6077,0.7195,474.5,485.8,1637.619505,0.2389,0.2054,1.0294,574.5,584.5,2891.360137,0.2133,0.0328
425,436.3,2079.990832,0.5969,0.739,475,486.3,1658.784015,0.2385,0.1777,1.0247,575,585,2905.982906,0.2117,0.0342
425.5,436.8,2106.227106,0.5906,0.7706,475.5,486.8,1679.905049,0.2377,0.162,1.0244,575.5,585.5,2920.5807,0.2098,0.0288
426,437.3,2132.403384,0.5897,0.7524,476,487.3,1700.982739,0.2361,0.1408,1.0185,576,586,2935.153584,0.2117,0.0241
426.5,437.8,2158.519872,0.5982,0.7114,476.5,487.8,1722.01722,0.2362,0.1312,1.0087,576.5,586.5,2949.70162,0.2172,0.0177
427,438.3,2184.576774,0.5947,0.6976,477,488.3,1743.008624,0.2353,0.1189,1.0062,577,587,2964.224872,0.2227,0.0197
427.5,438.8,2210.574294,0.5962,0.6704,477.5,488.8,1763.957083,0.2345,0.107,0.9913,577.5,587.5,2978.723404,0.2252,0.019
428,439.3,2236.512634,0.5939,0.6488,478,489.3,1784.862729,0.2355,0.0844,0.9856,578,588,2993.197279,0.2249,0.0204
428.5,439.8,2262.391996,0.5946,0.6164,478.5,489.8,1805.725693,0.2374,0.0823,0.982,578.5,588.5,3007.646559,0.2267,0.0195
429,440.3,2288.212582,0.5877,0.5578,479,490.3,1826.546106,0.2379,0.0938,0.9795,579,589,3022.071307,0.2319,0.0199
429.5,440.8,2313.974592,0.5919,0.481,479.5,490.8,1847.324097,0.2397,0.0987,0.975,579.5,589.5,3036.471586,0.2382,0.02
430,441.3,2339.678223,0.5818,0.5013,480,491.3,1868.059796,0.2406,0.0925,0.9707,580,590,3050.847458,0.2456,0.0204
430.5,441.8,2365.323676,0.5904,0.5221,480.5,491.8,1888.753332,0.2395,0.0804,0.9641,580.5,590.5,3065.198984,0.2496,0.0217
431,442.3,2390.911146,0.5914,0.5192,481,492.3,1909.404834,0.2387,0.0923,0.9551,581,591,3079.526227,0.2548,0.0232
431.5,442.8,2416.440831,0.5965,0.5286,481.5,492.8,1930.01443,0.2362,0.0969,0.9457,581.5,591.5,3093.829248,0.2596,0.0274
432,443.3,2441.912926,0.5927,0.5315,482,493.3,1950.582247,0.2354,0.1009,0.9338,582,592,3108.108108,0.2626,0.0342
432.5,443.8,2467.327625,0.598,0.5262,482.5,493.8,1971.108411,0.2317,0.0897,0.9265,582.5,592.5,3122.362869,0.2614,0.032
433,444.3,2492.685123,0.5966,0.5186,483,494.3,1991.59305,0.2308,0.1009,0.9189,583,593,3136.593592,0.2695,0.0318
433.5,444.8,2517.985612,0.592,0.5191,483.5,494.8,2012.036289,0.2267,0.1018,0.9155,583.5,593.5,3150.800337,0.2799,0.0307
434,445.3,2543.229284,0.5844,0.514,484,495.3,2032.438253,0.2228,0.0855,0.9113,584,594,3164.983165,0.2905,0.0331
434.5,445.8,2568.41633,0.5952,0.4883,484.5,495.8,2052.799068,0.2204,0.0737,0.9086,584.5,594.5,3179.142136,0.3013,0.0378
435,446.3,2593.546942,0.589,0.53,485,496.3,2073.118857,0.2211,0.0537,0.9027,585,595,3193.277311,0.3114,0.0393
435.5,446.8,2618.621307,0.5985,0.5591,485.5,496.8,2093.397746,0.2212,0.0332,0.9016,585.5,595.5,3207.388749,0.3178,0.0374
436,447.3,2643.639615,0.6014,0.5852,486,497.3,2113.635856,0.2231,0.0263,0.9005,586,596,3221.47651,0.3237,0.0413
436.5,447.8,2668.602054,0.6061,0.6079,486.5,497.8,2133.833311,0.2247,0.0148,0.8997,586.5,596.5,3235.540654,0.3292,0.0483
437,448.3,2693.508811,0.6146,0.5975,487,498.3,2153.990233,0.2298,0.0199,0.904,587,597,3249.58124,0.3367,0.0454
437.5,448.8,2718.360071,0.6358,0.5708,487.5,498.8,2174.106745,0.2324,0.0159,0.8988,587.5,597.5,3263.598326,0.3389,0.0447
438,449.3,2743.15602,0.65,0.5375,488,499.3,2194.182967,0.2347,0.0263,0.9018,588,598,3277.591973,0.3353,0.0498
438.5,449.8,2767.896843,0.6598,0.516,488.5,499.8,2214.219021,0.2318,0.036,0.9033,588.5,598.5,3291.562239,0.3386,0.0526
439,450.3,2792.582723,0.6654,0.4858,489,500.3,2234.215027,0.2286,0.0388,0.9044,589,599,3305.509182,0.3445,0.0558
439.5,450.8,2817.213842,0.6765,0.4521,489.5,500.8,2254.171104,0.2309,0.0406,0.9077,589.5,599.5,3319.432861,0.3445,0.0574
440,451.3,2841.790383,0.6795,0.458,490,501.3,2274.087373,0.2288,0.0264,0.9073,590,600,3333.333333,0.339,0.0501
440.5,451.8,2866.312528,0.6906,0.5124,490.5,501.8,2293.963952,0.2263,0.0365,0.911,590.5,600.5,3347.210658,0.3355,0.0401
441,452.3,2890.780455,0.7003,0.5622,491,502.3,2313.80096,0.2301,0.0388,0.9118,591,601,3361.064892,0.3345,0.0372
441.5,452.8,2915.194346,0.7041,0.6039,491.5,502.8,2333.598515,0.2274,0.0372,0.9099,591.5,601.5,3374.896093,0.3328,0.0354
442,453.3,2939.554379,0.7107,0.6425,492,503.3,2353.356734,0.2204,0.045,0.9131,592,602,3388.704319,0.326,0.0299
442.5,453.8,2963.860732,0.7306,0.7084,492.5,503.8,2373.075736,0.2151,0.0372,0.9143,592.5,602.5,3402.489627,0.3271,0.0288
443,454.3,2988.113581,0.7433,0.7827,493,504.3,2392.755635,0.2044,0.0476,0.9145,593,603,3416.252073,0.333,0.0339
443.5,454.8,3012.313105,0.7472,0.8588,493.5,504.8,2412.396549,0.1978,0.0591,0.916,593.5,603.5,3429.991715,0.3353,0.0396
444,455.3,3036.459477,0.7518,0.9185,494,505.3,2431.998593,0.1988,0.0616,0.9179,594,604,3443.708609,0.3344,0.0454
444.5,455.8,3060.552874,0.7635,0.9863,494.5,505.8,2451.561882,0.2068,0.064,0.9191,594.5,604.5,3457.402812,0.3324,0.0461
445,456.3,3084.593469,0.7893,1.0354,495,506.3,2471.086532,0.2041,0.0448,0.9194,595,605,3471.07438,0.3326,0.0453
445.5,456.8,3108.581436,0.8279,1.0922,495.5,506.8,2490.572656,0.2094,0.0502,0.924,595.5,605.5,3484.723369,0.3304,0.0411
446,457.3,3132.516947,0.8686,1.1134,496,507.3,2510.020369,0.2155,0.0504,0.927,596,606,3498.349835,0.3265,0.0356
446.5,457.8,3156.400175,0.9004,1.116,496.5,507.8,2529.429784,0.2148,0.0511,0.924,596.5,606.5,3511.953833,0.3229,0.0342
447,458.3,3180.23129,0.9433,1.1491,497,508.3,2548.801014,0.2151,0.0611,0.9225,597,607,3525.53542,0.3162,0.0283
447.5,458.8,3204.010462,0.9841,1.186,497.5,508.8,2568.134172,0.2168,0.0544,0.9217,597.5,607.5,3539.09465,0.3014,0.0226
448,459.3,3227.737862,1.0048,1.2181,498,509.3,2587.429369,0.2171,0.0497,0.9211,598,608,3552.631579,0.2903,0.0292
448.5,459.8,3251.413658,1.0117,1.2431,498.5,509.8,2606.686718,0.2179,0.0441,0.9205,598.5,608.5,3566.146261,0.285,0.0319
449,460.3,3275.038019,1.0194,1.2641,499,510.3,2625.90633,0.2235,0.0419,0.9239,599,609,3579.638752,0.2756,0.0356
449.5,460.8,3298.611111,1.0183,1.2833,499.5,510.8,2645.088315,0.2311,0.0404,0.9288,599.5,609.5,3593.109106,0.2615,0.0353
450,461.3,3322.133102,1.0245,1.2743,500,511.3,2664.232784,0.2289,0.0237,0.9228,600,610,3606.557377,0.2506,0.0358
450.5,461.8,3345.604158,1.0402,1.2723,500.5,511.8,2683.339846,0.2284,0.0227,0.922,600.5,610.5,3619.98362,0.2438,0.0316
451,462.3,3369.024443,1.0515,1.2613,501,512.3,2702.409612,0.2241,0.0184,0.9192,601,611,3633.387889,0.2369,0.025
451.5,462.8,3392.394123,1.0585,1.2568,501.5,512.8,2721.442191,0.2229,0.0193,0.9164,601.5,611.5,3646.770237,0.2302,0.0198
452,463.3,3415.713361,1.0525,1.2624,502,513.3,2740.437691,0.2197,0.0248,0.9209,602,612,3660.130719,0.2227,0.0126
452.5,463.8,3438.98232,1.0466,1.2634,502.5,513.8,2759.39622,0.2181,0.0221,0.9219,602.5,612.5,3673.469388,0.22,0.0079
453,464.3,3462.201163,1.0443,1.249,503,514.3,2778.317886,0.2188,0.022,0.9251,603,613,3686.786297,0.2184,0.0088
453.5,464.8,3485.370052,1.03,1.2357,503.5,514.8,2797.202797,0.2196,0.022,0.927,603.5,613.5,3700.0815,0.2158,0.0061
454,465.3,3508.489147,1.0349,1.2178,504,515.3,2816.05106,0.2217,0.0294,0.9291,604,614,3713.355049,0.2126,0.008
454.5,465.8,3531.558609,1.023,1.2054,504.5,515.8,2834.862781,0.2269,0.032,0.9353,604.5,614.5,3726.606998,0.2132,0.0083
455,466.3,3554.578597,1.0134,1.2427,505,516.3,2853.638066,0.226,0.0427,0.9457,605,615,3739.837398,0.2166,0.0091
455.5,466.8,3577.549272,0.9954,1.2207,505.5,516.8,2872.377021,0.2266,0.0471,0.9567,605.5,615.5,3753.046304,0.2197,0.0085
456,467.3,3600.47079,0.9784,1.1776,506,517.3,2891.079752,0.228,0.0464,0.9631,606,616,3766.233766,0.2228,0.0068
456.5,467.8,3623.343309,0.9368,1.1261,506.5,517.8,2909.746363,0.2295,0.0513,0.9684,606.5,616.5,3779.399838,0.2231,0.0056
457,468.3,3646.166987,0.8968,1.0838,507,518.3,2928.376959,0.2286,0.0434,0.9826,607,617,3792.544571,0.2259,0.0039
457.5,468.8,3668.94198,0.8743,1.0133,507.5,518.8,2946.971644,0.2328,0.0403,0.9951,607.5,617.5,3805.668016,0.2257,0.0012
458,469.3,3691.668442,0.8485,0.8983,508,519.3,2965.530522,0.237,0.0358,1.0145,608,618,3818.770227,0.2298,8.00E-04
458.5,469.8,3714.34653,0.8249,0.799,508.5,519.8,2984.053696,0.2427,0.0307,1.0322,608.5,618.5,3831.851253,0.23,-6.00E-04
459,470.3,3736.976398,0.8232,0.7054,509,520.3,3002.541269,0.2452,0.034,1.0503,609,619,3844.911147,0.228,-6.00E-04
459.5,470.8,3759.558199,0.8025,0.6582,509.5,520.8,3020.993344,0.2461,0.045,1.0692,609.5,619.5,3857.94996,0.2295,0.0014
460,471.3,3782.092086,0.7862,0.6669,510,521.3,3039.410022,0.245,0.0625,1.0809,610,620,3870.967742,0.2316,0.003
460.5,471.8,3804.578211,0.7667,0.6061,510.5,521.8,3057.791406,0.2458,0.0738,1.1019,610.5,620.5,3883.964545,0.2308,0.0042
461,472.3,3827.016727,0.7523,0.5649,511,522.3,3076.137597,0.2477,0.0806,1.1268,611,621,3896.940419,0.2302,0.0052
461.5,472.8,3849.407783,0.7265,0.5413,511.5,522.8,3094.448695,0.2455,0.0829,1.154,611.5,621.5,3909.895414,0.2288,0.0057
462,473.3,3871.751532,0.7182,0.5486,512,523.3,3112.724802,0.2501,0.0734,1.1766,612,622,3922.829582,0.2267,0.0054
462.5,473.8,3894.048122,0.7137,0.5641,512.5,523.8,3130.966018,0.2522,0.0676,1.1993,612.5,622.5,3935.742972,0.2241,0.0045
463,474.3,3916.297702,0.7048,0.5376,513,524.3,3149.172442,0.2537,0.0625,1.2192,613,623,3948.635634,0.2248,0.0028
463.5,474.8,3938.500421,0.6971,0.5166,513.5,524.8,3167.344173,0.2591,0.0655,1.2379,613.5,623.5,3961.507618,0.2246,5.00E-04
464,475.3,3960.656428,0.6819,0.486,514,525.3,3185.481312,0.2633,0.08,1.261,614,624,3974.358974,0.223,-7.00E-04
464.5,475.8,3982.765868,0.6691,0.4741,514.5,525.8,3203.583957,0.264,0.1063,1.2868,614.5,624.5,3987.189752,0.2166,1.00E-04
465,476.3,4004.828889,0.6675,0.4614,515,526.3,3221.652205,0.2643,0.1489,1.3152,615,625,4000,0.2111,-9.00E-04
465.5,476.8,4026.845638,0.668,0.433,515.5,526.8,3239.686155,0.2639,0.1765,1.3361,615.5,625.5,4012.789768,0.2088,-1.00E-04
466,477.3,4048.816258,0.6584,0.4112,516,527.3,3257.685905,0.2623,0.2022,1.35,616,626,4025.559105,0.2063,0.0013
466.5,477.8,4070.740896,0.6485,0.3906,516.5,527.8,3275.651552,0.2558,0.2168,1.3626,616.5,626.5,4038.308061,0.2055,0.0024
467,478.3,4092.619695,0.642,0.4082,517,528.3,3293.583191,0.2606,0.2176,1.3755,617,627,4051.036683,0.2046,0.003
467.5,478.8,4114.452799,0.6381,0.4634,517.5,528.8,3311.480921,0.2601,0.2321,1.3843,617.5,627.5,4063.74502,0.1997,0.0033
468,479.3,4136.240351,0.628,0.4797,518,529.3,3329.344837,0.2589,0.2434,1.3895,618,628,4076.433121,0.1991,0.0032
468.5,479.8,4157.982493,0.6059,0.501,518.5,529.8,3347.175035,0.2651,0.2432,1.3868,618.5,628.5,4089.101034,0.1987,0.0027
469,480.3,4179.679367,0.5943,0.5058,519,530.3,3364.971609,0.2702,0.2352,1.3825,619,629,4101.748808,0.1963,0.0018
469.5,480.8,4201.331115,0.5901,0.546,519.5,530.8,3382.734656,0.2728,0.2652,1.372,619.5,629.5,4114.376489,0.1974,3.00E-04
470,481.3,4222.937877,0.5889,0.5361,520,531.3,3400.46427,0.2732,0.2922,1.3654,620,630,4126.984127,0.195,-0.001
470.5,481.8,4244.499792,0.5866,0.5181,520.5,531.8,3418.160545,0.2728,0.2739,1.3603,620.5,630.5,4139.571768,0.1928,-2.00E-04
471,482.3,4266.017002,0.5841,0.495,521,532.3,3435.823575,0.2703,0.2703,1.3577,621,631,4152.139461,0.1935,1.00E-04
471.5,482.8,4287.489644,0.5835,0.4431,521.5,532.8,3453.453453,0.2651,0.263,1.3487,621.5,631.5,4164.687253,0.1951,0.0011
472,483.3,4308.917856,0.5872,0.4374,522,533.3,3471.050274,0.2646,0.2651,1.3306,622,632,4177.21519,0.1975,0.0017
472.5,483.8,4330.301778,0.5748,0.4234,522.5,533.8,3488.614129,0.2584,0.2572,1.3111,622.5,632.5,4189.72332,0.1995,0.0013
473,484.3,4351.641544,0.5643,0.4132,523,534.3,3506.145112,0.2535,0.2297,1.2906,623,633,4202.21169,0.2015,0.0032
473.5,484.8,4372.937294,0.5512,0.4052,523.5,534.8,3523.643314,0.2587,0.2067,1.273,623.5,633.5,4214.680347,0.2012,0.0044
474,485.3,4394.189161,0.5474,0.4081,524,535.3,3541.108828,0.2686,0.1844,1.2532,624,634,4227.129338,0.2016,0.0044
474.5,485.8,4415.397283,0.5405,0.4307,524.5,535.8,3558.541744,0.2753,0.17,1.229,624.5,634.5,4239.558708,0.1957,0.0047
475,486.3,4436.561793,0.5512,0.4333,525,536.3,3575.942155,0.2778,0.1377,1.2079,625,635,4251.968504,0.196,0.0049
475.5,486.8,4457.682827,0.5607,0.4515,525.5,536.8,3593.310151,0.2793,0.1108,1.1768,625.5,635.5,4264.358773,0.1994,0.0042
476,487.3,4478.760517,0.5701,0.4579,526,537.3,3610.645822,0.2776,0.0968,1.1476,626,636,4276.72956,0.2026,0.0033
476.5,487.8,4499.794998,0.583,0.458,526.5,537.8,3627.949258,0.2731,0.1091,1.1225,626.5,636.5,4289.080911,0.2038,0.0027
477,488.3,4520.786402,0.5897,0.4861,527,538.3,3645.22055,0.2689,0.1318,1.0971,627,637,4301.412873,0.203,0.001
477.5,488.8,4541.734861,0.5731,0.4786,527.5,538.8,3662.459787,0.2574,0.1203,1.0777,627.5,637.5,4313.72549,0.2054,-1.00E-04
478,489.3,4562.640507,0.5658,0.4991,528,539.3,3679.667058,0.2503,0.1276,1.0487,628,638,4326.018809,0.2102,9.00E-04
478.5,489.8,4583.503471,0.5512,0.4926,528.5,539.8,3696.842452,0.2471,0.1505,1.023,628.5,638.5,4338.292874,0.2136,4.00E-04
479,490.3,4604.323883,0.5455,0.4891,529,540.3,3713.986057,0.2476,0.1601,0.9961,629,639,4350.547731,0.2119,-1.00E-04
479.5,490.8,4625.101874,0.5401,0.4872,529.5,540.8,3731.097962,0.2401,0.1576,0.9736,629.5,639.5,4362.783425,0.2143,9.00E-04
480,491.3,4645.837574,0.5429,0.5147,530,541.3,3748.178254,0.2378,0.1287,0.9592,630,640,4375,0.2134,0.0012
480.5,491.8,4666.53111,0.5432,0.501,530.5,541.8,3765.227021,0.2318,0.1153,0.9385,630.5,640.5,4387.197502,0.2155,0.0012
481,492.3,4687.182612,0.53,0.4686,531,542.3,3782.24435,0.2211,0.1041,0.9228,631,641,4399.375975,0.2186,0.001
481.5,492.8,4707.792208,0.5207,0.4717,531.5,542.8,3799.230328,0.2116,0.1209,0.9037,631.5,641.5,4411.535464,0.2232,8.00E-04
482,493.3,4728.360024,0.511,0.4483,532,543.3,3816.185042,0.2011,0.1244,0.881,632,642,4423.676012,0.2249,0.0015
482.5,493.8,4748.886189,0.4981,0.4418,532.5,543.8,3833.108577,0.1883,0.111,0.8597,632.5,642.5,4435.797665,0.2267,0.0021
483,494.3,4769.370827,0.496,0.4304,533,544.3,3850.001021,0.1799,0.1416,0.843,633,643,4447.900467,0.2272,0.0022
483.5,494.8,4789.814066,0.4995,0.3941,533.5,544.8,3866.862457,0.1795,0.1509,0.8253,633.5,643.5,4459.98446,0.2256,0.003
484,495.3,4810.216031,0.5026,0.3815,534,545.3,3883.692972,0.1777,0.1544,0.8116,634,644,4472.049689,0.2258,0.0024
484.5,495.8,4830.576846,0.5033,0.3898,534.5,545.8,3900.492651,0.1805,0.1459,0.7899,634.5,644.5,4484.096199,0.2227,0.0044
485,496.3,4850.896635,0.5115,0.4053,535,546.3,3917.261578,0.1837,0.1206,0.7751,635,645,4496.124031,0.2235,0.0053
485.5,496.8,4871.175523,0.5096,0.3764,535.5,546.8,3933.999837,0.1884,0.1163,0.756,635.5,645.5,4508.13323,0.2246,0.0053
486,497.3,4891.413634,0.4919,0.373,536,547.3,3950.707514,0.1948,0.1239,0.7367,636,646,4520.123839,0.2258,0.0045
486.5,497.8,4911.611089,0.4689,0.3915,536.5,547.8,3967.38469,0.1994,0.1327,0.7147,636.5,646.5,4532.095901,0.2269,0.0028
487,498.3,4931.768011,0.4692,0.3955,537,548.3,3984.031451,0.2049,0.12,0.7011,637,647,4544.049459,0.2283,0.003
487.5,498.8,4951.884523,0.4519,0.4122,537.5,548.8,4000.647878,0.204,0.1101,0.6879,637.5,647.5,4555.984556,0.2305,0.0047
488,499.3,4971.960745,0.4495,0.3803,538,549.3,4017.234055,0.2007,0.1072,0.6722,638,648,4567.901235,0.2334,0.0058
488.5,499.8,4991.996799,0.4473,0.3638,538.5,549.8,4033.790065,0.1966,0.073,0.6632,638.5,648.5,4579.799537,0.2346,0.0065
489,500.3,5011.992804,0.4368,0.3621,539,550.3,4050.315989,0.1868,0.0568,0.651,639,649,4591.679507,0.2313,0.0047
489.5,500.8,5031.948882,0.4238,0.3814,539.5,550.8,4066.81191,0.1772,0.0324,0.6393,639.5,649.5,4603.541186,0.2307,0.0071
490,501.3,5051.865151,0.439,0.3859,540,551.3,4083.277909,0.166,0.0376,0.633,640,650,4615.384615,0.2342,0.0077
490.5,501.8,5071.74173,0.4367,0.3656,540.5,551.8,4099.714067,0.1651,0.0367,0.6241,640.5,650.5,4627.209839,0.2349,0.0071
491,502.3,5091.578738,0.4334,0.3528,541,552.3,4116.120466,0.1663,0.041,0.6169,641,651,4639.016897,0.2345,0.0055
491.5,502.8,5111.376293,0.4371,0.3285,541.5,552.8,4132.497186,0.1669,0.0429,0.613,641.5,651.5,4650.805833,0.2352,0.0029
492,503.3,5131.134512,0.4514,0.2963,542,553.3,4148.844308,0.1674,0.0354,0.6108,642,652,4662.576687,0.2366,0.0028
492.5,503.8,5150.853513,0.4433,0.2432,542.5,553.8,4165.161912,0.1609,0.031,0.6127,642.5,652.5,4674.329502,0.2383,0.0028
493,504.3,5170.533413,0.4488,0.2097,543,554.3,4181.450077,0.1572,0.0194,0.6154,643,653,4686.064319,0.2383,0.0028
493.5,504.8,5190.174326,0.4403,0.206,543.5,554.8,4197.708884,0.1495,0.0142,0.6202,643.5,653.5,4697.781178,0.2383,0.0025
494,505.3,5209.77637,0.4316,0.245,544,555.3,4213.938412,0.1423,0.0087,0.6239,644,654,4709.480122,0.2388,0.0023
494.5,505.8,5229.33966,0.4231,0.2827,544.5,555.8,4230.138739,0.1286,-1.00E-04,0.6109,644.5,654.5,4721.161192,0.24,0.0024
495,506.3,5248.86431,0.4319,0.3152,545,556.3,4246.309945,0.1289,0.0172,0.6179,645,655,4732.824427,0.2412,0.0042
495.5,506.8,5268.350434,0.4226,0.3142,545.5,556.8,4262.452107,0.128,0.0225,0.6055,645.5,655.5,4744.46987,0.242,0.0054
496,507.3,5287.798147,0.4152,0.29,546,557.3,4278.565305,0.1314,0.0257,0.6019,646,656,4756.097561,0.2414,0.0061
496.5,507.8,5307.207562,0.4134,0.2544,546.5,557.8,4294.649616,0.1305,0.0284,0.5983,646.5,656.5,4767.70754,0.2408,0.0048
497,508.3,5326.578792,0.4058,0.2261,547,558.3,4310.705117,0.1316,0.029,0.5972,647,657,4779.299848,0.2409,0.0055
497.5,508.8,5345.91195,0.3922,0.1863,547.5,558.8,4326.731886,0.131,0.0284,0.5907,647.5,657.5,4790.874525,0.2382,0.0047
498,509.3,5365.207147,0.385,0.1954,548,559.3,4342.73,0.1345,0.0248,0.5874,648,658,4802.431611,0.2386,0.0048
498.5,509.8,5384.464496,0.3783,0.2017,548.5,559.8,4358.699536,0.1358,0.0199,0.5754,648.5,658.5,4813.971147,0.2324,0.0044
499,510.3,5403.684107,0.3799,0.2241,549,560.3,4374.64057,0.1339,0.0167,0.5708,649,659,4825.493171,0.2279,0.0033
499.5,510.8,5422.866092,0.3789,0.2334,549.5,560.8,4390.553178,0.1396,0.0157,0.5766,649.5,659.5,4836.997726,0.2293,0.0039
500,511.3,5442.010561,0.385,0.258,550,561.3,4406.437437,0.154,0.032,0.482,650,660,4848.484848,0.218,0