comprimento de onda (nm),(1) 2.5-2.5,(1) 2.5-5,(1) 2.5-10,(2) 2.5-10,(2) 5-10,(2) 10-10,(2) 15-10,(3) 10-2.5,(3) 10-5,(3) 10-10,(3) 10-15,(3) 10-20,(4) 5-2.5,(4) 5-5,(4) 5-10,(5) 15-2.5,(5) 15-5,(5) 15-10
300,0,0,1.677,3.093,2.099,1.395,1.564,0.109,0.392,1.395,3.581,5.654,0,0.37,1.574,0.085,0.392,1.564
300.5,0,0,1.0929,2.192,1.4647,1.3638,1.4599,0.125,0.4326,1.3638,3.2829,5.2811,0,0.412,1.5057,0.0846,0.3373,1.4599
301,0,0,1,1.78,1.3451,1.4026,1.4111,0.1259,0.4454,1.4026,3.3018,5.2081,0,0.4093,1.3805,0.0837,0.35,1.4111
301.5,0,0.1892,1,1.5549,1.4019,1.3931,1.4426,0.1305,0.4008,1.3931,3.2699,5.1327,0,0.4172,1.3304,0.0834,0.351,1.4426
302,0,0.362,1,1.4067,1.3293,1.395,1.4476,0.1372,0.3851,1.395,3.3008,5.0944,0,0.4169,1.2953,0.0833,0.3515,1.4476
302.5,0,1,1,1.3422,1.354,1.4332,1.445,0.1419,0.3676,1.4332,3.3418,5.109,0,0.413,1.3304,0.0839,0.3536,1.445
303,0,1,1,1.1951,1.3559,1.4453,1.451,0.1267,0.3527,1.4453,3.3586,5.1231,0,0.4057,1.3315,0.0832,0.3541,1.451
303.5,0,1,1,1.0662,1.3568,1.4604,1.4538,0.1271,0.3647,1.4604,3.362,5.1353,0,0.3982,1.337,0.0831,0.3538,1.4538
304,0,1,1,0.9968,1.3647,1.471,1.4566,0.1515,0.3742,1.471,3.3643,5.181,0,0.42,1.3483,0.0841,0.347,1.4566
304.5,0,1,1,0.9569,1.3626,1.485,1.4566,0.1463,0.3983,1.485,3.3674,5.2148,0,0.3879,1.3427,0.0845,0.3474,1.4566
305,0,0,1,0.8959,1.3294,1.507,1.4606,0.1499,0.4465,1.507,3.3755,5.2577,0,0.3771,1.3543,0.0867,0.3443,1.4606
305.5,0,0,1,0.9264,1.4225,1.5185,1.4874,0.1533,0.4475,1.5185,3.3848,5.295,0,0.3201,1.4082,0.0771,0.3319,1.4874
306,0,0,1,0.9269,1.4805,1.5108,1.4986,0.1725,0.434,1.5108,3.3967,5.3373,0,0.2955,1.428,0.0687,0.3353,1.4986
306.5,0,0,1,1.0382,1.4916,1.5167,1.5126,0.1667,0.4253,1.5167,3.4091,5.385,0,0.2694,1.4675,0.071,0.3305,1.5126
307,0,0,1,0.8394,1.4775,1.5196,1.5167,0.1736,0.4024,1.5196,3.4229,5.4476,0,0.2575,1.4888,0.0832,0.3414,1.5167
307.5,0,0,1,0.9208,1.5138,1.5328,1.5131,0.1725,0.4238,1.5328,3.4199,5.5314,0,0.2488,1.5129,0.0858,0.3379,1.5131
308,0,0,1,0.918,1.5623,1.5292,1.5358,0.1568,0.3993,1.5292,3.4527,5.6236,0,0.2802,1.5519,0.0847,0.3354,1.5358
308.5,0,0,1,0.8979,1.6172,1.5297,1.5442,0.1615,0.3939,1.5297,3.4622,5.6731,0,0.3175,1.6141,0.0863,0.3488,1.5442
309,0,0,1,1.0028,1.6215,1.5239,1.5585,0.1376,0.3841,1.5239,3.4644,5.4845,0,0.3735,1.6247,0.0864,0.3586,1.5585
309.5,0,0,1,0.9024,1.5915,1.5354,1.5626,0.1351,0.4047,1.5354,3.4587,4.8801,0,0.3817,1.6124,0.0853,0.3611,1.5626
310,0,1,1,1.0246,1.5984,1.5634,1.5732,0.1231,0.4149,1.5634,3.438,3.134,0,0.4123,1.6761,0.084,0.3713,1.5732
310.5,0,0,1,1.0385,1.5828,1.5884,1.5798,0.1421,0.4215,1.5884,3.4254,2.8802,0,0.3862,1.7143,0.0842,0.3719,1.5798
311,0,0,2,1.1554,1.6001,1.6015,1.5914,0.1367,0.4241,1.6015,3.3908,2.3396,0,0.3811,1.6984,0.0847,0.3688,1.5914
311.5,0,0,2,1.1544,1.5921,1.6176,1.6023,0.1614,0.4174,1.6176,3.374,1.9385,0,0.4057,1.7115,0.085,0.3621,1.6023
312,0,0,2,1.2844,1.6088,1.6493,1.5982,0.1663,0.4214,1.6493,3.3168,1.9046,0,0.4323,1.7236,0.0839,0.3634,1.5982
312.5,0,0,2,1.215,1.5949,1.6633,1.6048,0.1629,0.4326,1.6633,3.2597,1.7226,0,0.4439,1.6998,0.0888,0.3586,1.6048
313,0,0,2,1.2822,1.6263,1.6756,1.6029,0.15,0.4121,1.6756,3.1469,1.2656,0,0.4582,1.7386,0.1036,0.3639,1.6029
313.5,0,0,2,1.4127,1.6374,1.6923,1.6036,0.1506,0.4106,1.6923,2.931,1.0502,0,0.456,1.7298,0.1046,0.3696,1.6036
314,0,0,2,1.5812,1.6461,1.7057,1.6099,0.163,0.4086,1.7057,2.7776,1.8355,0,0.4493,1.7617,0.0927,0.3728,1.6099
314.5,0,0,2,1.6396,1.6373,1.7138,1.6297,0.1555,0.4327,1.7138,2.7362,3.2922,0,0.4295,1.8252,0.0816,0.383,1.6297
315,0,0,2,1.7421,1.6518,1.7348,1.6334,0.1504,0.4481,1.7348,2.5994,4.62,0,0.3906,1.8225,0.0851,0.3992,1.6334
315.5,0,0,2,1.8777,1.7097,1.7452,1.6365,0.1461,0.4615,1.7452,2.2506,6.4894,0,0.3431,1.8458,0.0857,0.4026,1.6365
316,0,0,2,2.0483,1.7318,1.7642,1.6134,0.1652,0.4817,1.7642,2.0082,8.5358,0,0.3633,1.8604,0.0849,0.4029,1.6134
316.5,0,0,2,2.0781,1.7608,1.7841,1.6148,0.1677,0.4886,1.7841,2.3343,11.9535,0,0.4124,1.8768,0.0879,0.4001,1.6148
317,0,0,2,2.038,1.7979,1.7823,1.7045,0.1685,0.5018,1.7823,2.9224,16.2837,0,0.4481,1.9247,0.0717,0.398,1.7045
317.5,0,0,2,2.2503,1.8495,1.7615,1.7569,0.1581,0.5093,1.7615,3.3509,21.674,0,0.4653,1.9683,0.0719,0.402,1.7569
318,0,0,2,2.2496,1.8975,1.7068,1.7478,0.1616,0.5194,1.7068,4.0866,25.8627,0,0.4721,1.9939,0.0841,0.4032,1.7478
318.5,0,0,2,2.342,1.9371,1.6231,1.8051,0.1683,0.5188,1.6231,4.7848,32.7597,0,0.4656,2.0366,0.0827,0.4004,1.8051
319,0,0,2,2.4633,1.9614,1.6452,2.1582,0.1713,0.5132,1.6452,6.6133,41.4867,0,0.448,2.0377,0.0682,0.4031,2.1582
319.5,0,0,2,2.4099,1.9953,1.7243,2.6452,0.1722,0.5175,1.7243,9.0971,52.127,0,0.4117,2.0628,0.0736,0.4063,2.6452
320,0,0,2,2.5278,2.0175,1.7128,3.1493,0.182,0.5199,1.7128,12.1667,64.3959,0,0.3716,2.0919,0.0872,0.4034,3.1493
320.5,0,0,2,2.6271,2.0219,1.7551,3.7995,0.1867,0.5288,1.7551,15.733,76.0886,0,0.3255,2.093,0.072,0.3913,3.7995
321,0.1293,1,2.5348,2.7582,1.9738,1.7284,4.4871,0.1622,0.5362,1.7284,19.3912,91.3908,0,0.3996,1.9988,0.07,0.3873,4.4871
321.5,-0.5174,1,2,2.7897,1.9365,2.1338,5.7857,0.1491,0.533,2.1338,24.564,109.212,-0.0237,0.4346,1.9454,0.0781,0.4194,5.7857
322,-1,1,2,2.8865,1.8071,2.7749,7.4539,0.1614,0.5356,2.7749,31.7567,129.0554,0.0946,0.4693,1.7875,0.0852,0.4515,7.4539
322.5,-1,1,2,2.7457,1.6262,3.5316,9.4928,0.1888,0.5464,3.5316,40.5924,150.6367,0.1341,0.4855,1.6074,0.0878,0.4917,9.4928
323,0,1,2,2.4834,1.2942,4.4328,11.6804,0.1908,0.5464,4.4328,48.4831,174.7686,0.0946,0.4843,1.3332,0.0993,0.5683,11.6804
323.5,0,1,2,1.9783,0.6293,5.4271,14.1173,0.1775,0.5314,5.4271,60.1931,202.5498,-0.0237,0.4828,0.7131,0.1159,0.6864,14.1173
324,0,1,1,1.5127,0.1087,7.2841,17.4495,0.1708,0.5203,7.2841,74.3571,233.553,0,0.46,0.3288,0.1287,0.9681,17.4495
324.5,0,0,1,1.0557,0.0846,10.2602,22.0088,0.1693,0.5466,10.2602,90.4278,267.3555,-0.0075,0.4256,0.3762,0.1507,1.3125,22.0088
325,0,0,0,0.674,0.6423,14.122,27.5152,0.184,0.5684,14.122,108.5402,303.5384,0.0152,0.354,0.9912,0.1791,1.7829,27.5152
325.5,0,0,0,-0.0299,1.4101,18.6659,33.639,0.1846,0.6134,18.6659,129.3298,341.701,0.0806,0.3438,1.4892,0.2539,2.2961,33.639
326,0,0,-2,-1.8914,2.0387,23.7208,40.1796,0.1826,0.6596,23.7208,151.691,381.4251,0.2036,0.4796,1.9854,0.3155,2.9453,40.1796
326.5,0,0,-2,-1.5773,4.3769,30.5814,48.2461,0.1755,0.9267,30.5814,176.3376,422.3146,0.1778,0.5555,4.2836,0.4248,3.9688,48.2461
327,0,0,-1,-0.5661,8.0248,38.9321,57.5192,0.173,1.477,38.9321,202.4278,463.9354,0.0735,0.628,7.6879,0.5076,5.4774,57.5192
327.5,0,1,2,2.6722,13.2024,48.5912,67.652,0.1825,2.2963,48.5912,231.3761,505.957,-0.0221,0.7295,13.0397,0.6324,7.2473,67.652
328,0,1,5,8.5117,20.5844,60.4125,79.0584,0.2626,3.3419,60.4125,262.8285,548.1112,0,0.8028,20.3121,0.8368,9.1986,79.0584
328.5,0,1,14,16.99,29.9004,73.7643,91.6491,0.4101,4.5576,73.7643,296.5326,589.9244,0,0.8359,29.7702,1.1729,11.3294,91.6491
329,0,1,28,29.0756,42.8111,89.6217,105.8583,0.5538,6.6419,89.6217,332.5734,631.0518,0,0.8779,42.7794,1.4736,14.1187,105.8583
329.5,0,1,45,43.7259,57.9557,106.5832,120.3974,0.6942,9.2897,106.5832,372.321,671.1247,0,0.9413,57.7558,1.7196,17.2011,120.3974
330,0,1,65,63.1266,76.9591,125.9626,136.2002,1.0876,12.6235,125.9626,414.8355,710.0257,0,0.9596,76.775,2.0172,20.4931,136.2002
330.5,0,0,92,88.3352,100.6396,148.5005,153.6837,1.9042,16.6888,148.5005,459.5276,747.266,0,1.4019,100.3327,2.4772,23.9855,153.6837
331,-0.1335,1,123,116.6424,128.1617,172.8436,172.3467,2.7677,21.2682,172.8436,505.8962,782.6632,-0.0317,2.086,127.5386,3.0079,27.5471,172.3467
331.5,0.5342,1,156,148.4998,159.6016,198.9394,191.8422,3.5161,26.9105,198.9394,553.0248,816.3391,0.0909,3.6834,158.0286,3.4419,31.6647,191.8422
332,1,1,196,185.9187,194.0701,227.1333,212.0808,4.477,33.0869,227.1333,599.6845,847.7697,0.2769,5.8069,192.6012,3.9183,36.0404,212.0808
332.5,0,2,241,227.7226,234.4175,257.7027,233.3541,5.5797,40.563,257.7027,645.4269,876.5006,0.3886,9.8518,232.5998,4.4957,40.8989,233.3541
333,0,6,289,273.4336,277.5284,289.9628,255.3361,7.0644,49.125,289.9628,690.1741,902.9213,0.7128,16.9713,276.0784,5.2335,45.867,255.3361
333.5,0,12,338,322.9693,322.1098,322.9314,277.7096,8.5461,58.2085,322.9314,733.1337,927.2781,1.2212,26.1537,320.8543,5.8744,50.9499,277.7096
334,1,20,391,374.5323,369.4215,357.3876,301.062,10.5739,67.99,357.3876,774.3931,949.1773,2.4977,37.3979,368.196,6.6042,56.5297,301.062
334.5,2,35,444,426.8438,417.8558,392.4164,324.3134,12.4275,78.5462,392.4164,812.4514,967.7418,4.4041,52.1654,416.8601,7.2926,62.3078,324.3134
335,3,56,496,480.2073,465.9615,427.2312,347.2718,14.0843,90.1808,427.2312,847.2917,983.1159,6.635,70.9461,465.3446,7.9676,68.2646,347.2718
335.5,5,85,548,533.5991,512.7949,460.8794,369.0197,15.3866,102.2531,460.8794,878.7703,996.2363,8.6935,92.3607,511.9425,8.4972,74.1213,369.0197
336,8,115,595,583.7476,557.5767,493.2627,389.9817,17.6776,113.3623,493.2627,906.9753,999.999,11.7637,113.8602,557.2201,9.2069,79.2794,389.9817
336.5,14,149,640,631.66,600.9851,525.0268,410.8902,20.7329,124.2433,525.0268,932.6966,999.999,15.785,136.1069,600.4845,9.7303,84.2513,410.8902
337,20,183,683,677.7049,641.1934,554.5827,430.5356,22.8825,134.4378,554.5827,954.8393,999.999,19.2063,157.9236,640.6498,10.2961,88.7376,430.5356
337.5,26,216,715,715.421,674.715,581.0071,448.5904,23.8831,144.0966,581.0071,972.755,999.999,21.6322,178.7212,674.9381,10.6602,93.415,448.5904
338,32,243,737,743.778,700.9048,604.7722,465.008,25.3658,152.553,604.7722,986.7204,999.999,24.6241,197.4329,701.0568,11.1638,97.2616,465.008
338.5,40,262,754.1766,761.9937,719.5493,624.3491,479.7697,27.3098,159.3131,624.3491,999.999,999.999,27.5474,210.2282,719.8579,11.6549,100.3431,479.7697
339,44,270,762,771.2235,731.655,640.39,492.6885,28.5679,164.4573,640.39,999.999,999.999,29.6175,217.9319,731.9183,12.0407,103.0238,492.6885
339.5,44,271,757,770.5617,735.7958,651.5044,503.4563,28.6173,168.4485,651.5044,999.999,999.999,29.7096,221.4328,734.8801,12.3241,105.355,503.4563
340,40,258,746,761.8994,732.813,659.4047,512.5205,28.9541,171.3533,659.4047,999.999,999.999,28.3968,217.7346,731.2459,12.505,106.9814,512.5205
340.5,33,231,728,743.2126,722.4884,663.4984,519.7761,29.1289,171.8932,663.4984,999.999,999.999,26.0931,205.6744,720.0495,12.732,108.0645,519.7761
341,21,194,700,715.1271,704.895,662.4982,524.6428,29.0417,169.9965,662.4982,999.999,999.999,24.4321,186.3714,701.3926,12.7302,108.4248,524.6428
341.5,11,156,665,680.5815,680.2505,657.0848,527.409,27.5622,167.1119,657.0848,999.999,999.999,21.0734,164.8011,676.0162,12.6997,108.4925,527.409
342,5,117,629,641.6216,649.8228,648.5848,528.3712,26.0063,162.8722,648.5848,999.999,999.999,15.844,141.8765,646.1098,12.643,108.2549,528.3712
342.5,3,82,586,596.5118,615.8714,636.7774,527.683,24.7087,157.1252,636.7774,999.999,999.999,10.9509,118.3657,611.6236,12.5739,107.7964,527.683
343,2,53,539,547.395,575.7816,621.1836,524.8285,24.0179,150.3366,621.1836,999.999,999.999,8.8135,96.1369,571.8043,12.4395,106.6086,524.8285
343.5,1,33,489,495.4379,531.634,601.1869,519.6357,22.9199,142.9878,601.1869,999.999,999.999,7.0424,75.9446,527.6871,12.132,105.157,519.6357
344,1,20,438,440.5655,485.1453,577.2683,511.5755,21.6039,134.618,577.2683,995.9025,999.999,4.7601,59.435,481.1121,11.7589,103.5072,511.5755
344.5,1,13,385,385.7509,436.3755,549.7752,500.7875,20.0491,125.6909,549.7752,981.3585,999.999,2.6637,45.8206,432.7789,11.6909,101.3288,500.7875
345,1,8,335,333.4277,387.6523,520.1199,488.5587,18.6038,116.1928,520.1199,963.3477,999.999,1.5907,33.086,384.4044,11.5404,98.6573,488.5587
345.5,0,3,286,283.4211,339.5878,487.5384,473.5411,17.0251,105.4423,487.5384,941.7928,999.999,0.9321,22.1296,336.4754,11.1257,95.7667,473.5411
346,0,1,240,235.5001,293.3772,453.3568,457.0742,15.3369,94.2445,453.3568,917.6242,999.999,0.4649,13.7059,290.785,10.5728,92.3611,457.0742
346.5,0,1,198,192.4324,249.9157,418.0407,439.0345,13.2206,82.3299,418.0407,889.8056,999.999,0.3389,8.5534,247.4722,10.0896,88.1294,439.0345
347,0,1,160,155.1083,209.0978,381.7087,419.2992,11.1323,70.0208,381.7087,858.1776,999.999,0.2633,5.0167,207.4117,9.6562,83.2614,419.2992
347.5,0,1,122,117.5061,169.6137,345.0607,398.2189,8.7531,58.5371,345.0607,823.1264,988.5901,0.2175,2.685,168.6954,8.9601,78.2932,398.2189
348,0,1,88,85.0797,134.1224,309.2793,376.3494,6.4129,47.4542,309.2793,785.4753,973.1735,0.1219,1.4378,133.3129,8.2209,72.7066,376.3494
348.5,0,1,61,58.0152,103.5841,274.8096,354.6222,4.3768,37.5847,274.8096,745.0982,955.5627,0.0844,1.0928,102.9848,7.4477,67.0501,354.6222
349,0,1,40,36.7948,77.8903,241.8321,332.1074,3.1805,28.757,241.8321,701.6093,934.8564,-0.0226,0.9746,77.2932,7.0927,61.1682,332.1074
349.5,0,1,22,20.4271,56.5785,210.3926,309.1512,2.1895,21.6616,210.3926,655.7085,911.3138,0,0.9744,55.4592,6.5209,55.2142,309.1512
350,0,1,10,8.5564,38.9323,181.4467,285.7219,1.2939,16.0761,181.4467,608.4567,884.979,0,1.081,38.1968,5.7227,49.6628,285.7219
350.5,0,1,2,0.4766,25.5725,155.2413,263.0186,0.6479,11.7937,155.2413,560.2326,856.1971,0,1.1582,25.0503,4.8434,44.3487,263.0186
351,0,1,-2,-2.9227,16.0485,131.3823,240.624,0.4091,8.495,131.3823,512.0245,825.3431,0,1.1573,15.6689,4.1976,39.3729,240.624
351.5,0,1,-3,-3.8593,9.0111,109.9805,218.4128,0.2677,5.615,109.9805,464.1229,792.2669,-0.0031,1.0892,9.0523,3.657,34.1185,218.4128
352,0,1,-2,-2.9716,4.8493,91.6768,196.533,0.2017,3.6493,91.6768,417.3317,756.9801,9.00E-04,0.9922,5.1376,3.1093,29.0422,196.533
352.5,0,1,-1,-1.6444,2.7953,76.1313,175.9721,0.1992,2.732,76.1313,372.3545,719.6509,0.0634,0.9352,2.9233,2.6023,24.5901,175.9721
353,0,1.4056,1,0.1722,1.9642,62.6203,156.1977,0.2019,1.8447,62.6203,330.1919,680.6666,0.0774,0.8929,2.2357,1.9918,20.1086,156.1977
353.5,0,1,3,1.5989,1.5248,50.2565,137.3247,0.2027,1.3972,50.2565,291.7489,640.466,0.0429,0.8819,1.8765,1.4299,15.9312,137.3247
354,0,1,4,2.1916,1.1319,39.2368,118.846,0.207,1.0545,39.2368,256.9223,599.1586,-0.0115,0.8759,1.3324,0.9085,11.9918,118.846
354.5,0,1,4,2.7084,1.2665,30.3308,102.0742,0.2059,0.7963,30.3308,225.323,556.9317,0,0.8327,1.6328,0.5897,8.6479,102.0742
355,0,1,5,3.1556,1.889,23.4563,86.9756,0.2025,0.7388,23.4563,195.49,514.2788,0,0.8551,2.3385,0.3649,6.093,86.9756
355.5,0,1,5,3.3702,2.0321,17.2768,72.7803,0.1954,0.7581,17.2768,168.7264,471.5348,0,0.9318,2.522,0.2322,4.2532,72.7803
356,0,1,5,3.4946,2.2833,12.3742,60.3525,0.1951,0.7589,12.3742,143.7882,429.1255,0,0.9543,2.7763,0.19,3.082,60.3525
356.5,0,1,5,3.5004,2.3754,8.4077,49.2368,0.1962,0.742,8.4077,120.8601,387.396,-0.0061,0.9698,2.9249,0.1869,2.1116,49.2368
357,0,1,5,3.495,2.4863,5.5308,39.7065,0.2011,0.7044,5.5308,100.5912,346.7719,0.0016,0.8777,2.9968,0.1485,1.4457,39.7065
357.5,0,1,5,3.4783,2.5735,3.8604,31.9011,0.1957,0.7186,3.8604,83.3062,307.6452,0.1253,0.8753,3.0543,0.107,1.1468,31.9011
358,0,1,5,3.4757,2.6345,3.0526,25.7141,0.19,0.749,3.0526,67.2728,270.4276,0.1531,0.8824,3.0314,0.0963,1.0263,25.7141
358.5,0,1,5,3.4762,2.6521,2.9354,20.9161,0.1907,0.7749,2.9354,53.7084,235.561,0.0848,0.8361,2.9928,0.1359,0.8885,20.9161
359,0,0,5,3.4794,2.6499,2.7239,16.5879,0.2037,0.7831,2.7239,42.0208,203.4597,-0.0473,0.7965,2.9312,0.1688,0.7641,16.5879
359.5,0,1,5,3.4776,2.6723,2.6443,13.0799,0.2006,0.7814,2.6443,32.4839,174.5331,0.0984,0.7952,2.8866,0.1503,0.7182,13.0799
360,0,1,5,3.4951,2.649,2.8298,10.4854,0.1901,0.8233,2.8298,25.1159,149.2219,0.1394,0.8463,2.8741,0.1297,0.697,10.4854
360.5,0,1,5,3.5265,2.588,3.0847,8.5652,0.19,0.8248,3.0847,19.5498,127.0209,0.0757,0.9673,2.8253,0.1281,0.6786,8.5652
361,0,1,5,3.5467,2.5539,3.1801,6.8152,0.1953,0.7828,3.1801,15.7056,107.4139,0.0353,1.0232,2.7823,0.1263,0.6697,6.8152
361.5,0,1,5,3.5218,2.478,3.1896,5.2106,0.1996,0.732,3.1896,12.1596,89.8547,0.2525,0.9935,2.7564,0.099,0.6543,5.2106
362,0,1,5,3.5343,2.4767,3.2523,4.1506,0.2008,0.6963,3.2523,9.4955,74.8803,0.2662,0.8062,2.7061,0.1126,0.6362,4.1506
362.5,0,1,5,3.5296,2.4795,3.3478,3.6299,0.1913,0.6993,3.3478,7.8675,62.277,0.1011,0.7171,2.7119,0.1127,0.6366,3.6299
363,0,1,5,3.5012,2.4785,3.3753,3.2612,0.1862,0.6893,3.3753,7.0085,51.8217,-0.0309,0.7069,2.7186,0.1239,0.6401,3.2612
363.5,0,1,5,3.4808,2.4703,3.4252,3.1426,0.1879,0.666,3.4252,6.0358,41.2639,0,0.5942,2.6909,0.1271,0.636,3.1426
364,0,1,5,3.4812,2.474,3.4223,2.9665,0.1975,0.6613,3.4223,4.9985,33.0903,0,0.6049,2.72,0.1201,0.6374,2.9665
364.5,0,1,5,3.4792,2.4936,3.4141,2.9338,0.1952,0.6549,3.4141,4.61,26.4022,0,0.6038,2.7846,0.1126,0.6415,2.9338
365,0,1,5,3.4562,2.4873,3.4275,2.9789,0.2051,0.6509,3.4275,4.8281,21.2158,0,0.7018,2.7823,0.1153,0.6392,2.9789
365.5,0,1,5,3.4464,2.5404,3.4138,3.0867,0.2094,0.6159,3.4138,5.1536,17.3204,0,0.7906,2.7926,0.1195,0.6404,3.0867
366,0,2,5,3.4391,2.5468,3.3987,3.2024,0.2003,0.6014,3.3987,5.7064,13.6419,0,0.7652,2.8235,0.0964,0.6442,3.2024
366.5,0,2,5,3.4364,2.5586,3.4021,3.2755,0.1943,0.6022,3.4021,6.0446,10.369,0,0.7541,2.8369,0.0932,0.6413,3.2755
367,0,2,5,3.4189,2.5686,3.4074,3.3251,0.1978,0.6173,3.4074,6.4128,8.3765,0,0.7631,2.8365,0.1233,0.6292,3.3251
367.5,0,1,5,3.4216,2.5299,3.404,3.3609,0.2066,0.6275,3.404,6.8155,7.51,0,0.8377,2.8603,0.143,0.6458,3.3609
368,0,1,5,3.4435,2.5331,3.4455,3.4107,0.2027,0.6415,3.4455,7.3487,7.0242,0,0.8942,2.8805,0.1433,0.6606,3.4107
368.5,0,1,5,3.4463,2.5488,3.469,3.464,0.1956,0.6393,3.469,7.8008,7.1331,0,0.8856,2.8847,0.1352,0.6742,3.464
369,0,1,5,3.4741,2.5606,3.5121,3.5275,0.1883,0.6306,3.5121,8.0804,7.0253,0,0.9102,2.8839,0.1757,0.6855,3.5275
369.5,0,1,4,3.4791,2.5641,3.5284,3.6082,0.1925,0.6372,3.5284,8.3072,7.4613,0,0.9106,2.8834,0.1656,0.6917,3.6082
370,0,1,4,3.4954,2.5278,3.5607,3.683,0.1999,0.62,3.5607,8.5071,8.251,0,1.0098,2.8785,0.1237,0.7077,3.683
370.5,0,1,4,3.5104,2.5188,3.6179,3.7408,0.2005,0.6181,3.6179,8.7153,9.4054,0,0.9364,2.8664,0.0941,0.7261,3.7408
371,0,1,4,3.5016,2.5451,3.6838,3.8163,0.1973,0.6509,3.6838,8.9618,10.6709,0,0.8349,2.8826,0.1309,0.7375,3.8163
371.5,0,1,4,3.5013,2.6096,3.7546,3.8851,0.2027,0.6815,3.7546,9.1943,11.6349,0,0.7748,2.9452,0.1558,0.74,3.8851
372,0,2,4,3.3526,2.6587,3.8319,3.9683,0.2087,0.6803,3.8319,9.4492,12.4803,0,0.8066,2.9941,0.163,0.7552,3.9683
372.5,0,1,4,3.2543,2.7623,3.9362,4.0645,0.2067,0.7015,3.9362,9.7027,13.3162,0,0.8627,3.0987,0.1647,0.8017,4.0645
373,0,1,4,3.3179,2.8701,4.0466,4.1771,0.2068,0.7356,4.0466,9.9962,14.2478,-0.0238,0.8598,3.1843,0.1864,0.8307,4.1771
373.5,0,1,4,3.4958,3.0322,4.214,4.3025,0.2066,0.7775,4.214,10.2859,15.1589,0.0953,0.9205,3.2854,0.1955,0.8429,4.3025
374,0,1,4,3.5849,3.2037,4.3711,4.4519,0.2081,0.819,4.3711,10.5889,15.807,0.135,0.9098,3.4274,0.1998,0.8518,4.4519
374.5,0,1,5,3.7504,3.3833,4.5102,4.5826,0.2081,0.8831,4.5102,10.9085,16.4007,0.0953,0.9796,3.6003,0.1973,0.8739,4.5826
375,0,1,4,3.9389,3.5089,4.6837,4.7227,0.2107,0.8999,4.6837,11.2058,17.0403,-0.0238,0.9956,3.7921,0.1977,0.9157,4.7227
375.5,0,1,5,4.2072,3.7612,4.8643,4.8594,0.2099,0.9525,4.8643,11.5426,17.6707,-0.0231,0.9589,3.991,0.1969,0.9525,4.8594
376,0,1,5,4.5043,3.9432,5.0677,4.9921,0.2005,1.0259,5.0677,11.9016,18.3112,0.0926,0.9395,4.1634,0.1883,0.9787,4.9921
376.5,0.1065,1,5,4.7124,4.1855,5.2445,5.1459,0.1976,1.0926,5.2445,12.2867,18.872,0.1311,0.9148,4.3392,0.1881,1.017,5.1459
377,-0.4258,1,5,4.9546,4.4281,5.4769,5.3059,0.2024,1.1198,5.4769,12.6665,19.4234,0.0926,0.9678,4.6239,0.1951,1.0649,5.3059
377.5,-1,1,6,5.3417,4.6371,5.701,5.4508,0.2098,1.2258,5.701,13.0677,19.9377,-0.0231,1.0508,4.8757,0.2045,1.1176,5.4508
378,0,1,6,5.6962,4.9433,5.9384,5.6324,0.208,1.3359,5.9384,13.4769,20.4459,0,1.1205,5.154,0.1966,1.164,5.6324
378.5,0,1,6,6.0969,5.2622,6.1723,5.809,0.2082,1.3969,6.1723,13.9087,20.9464,0,1.1817,5.4831,0.1973,1.2038,5.809
379,0,2,6,6.5131,5.5372,6.4114,5.9781,0.2109,1.4704,6.4114,14.3415,21.4381,-0.0313,1.137,5.8423,0.2025,1.2427,5.9781
379.5,0,2,6,6.914,5.9437,6.648,6.1429,0.2065,1.5504,6.648,14.778,21.8968,0.0939,1.1901,6.2209,0.2052,1.2838,6.1429
380,-1,2,7,7.3046,6.2801,6.8919,6.2751,0.2191,1.5923,6.8919,15.1846,22.3364,0.2711,1.2527,6.5204,0.2058,1.3119,6.2751
380.5,0,2,7,7.682,6.6407,7.1336,6.4239,0.2528,1.6585,7.1336,15.5888,22.7651,0.4201,1.385,6.9124,0.2064,1.339,6.4239
381,0,2,8,7.999,7.0418,7.3782,6.5529,0.2892,1.7207,7.3782,15.954,23.206,0.3028,1.5108,7.3049,0.2064,1.3475,6.5529
381.5,1,3,8,8.2549,7.3959,7.6082,6.688,0.4016,1.7812,7.6082,16.3303,23.6452,0.1067,1.6529,7.7335,0.2067,1.3412,6.688
382,1,3,9,8.4741,7.7457,7.8612,6.8309,0.3971,1.7837,7.8612,16.6614,24.0178,0.0949,1.8374,8.0827,0.2065,1.3643,6.8309
382.5,0,3,10,8.8074,8.1085,8.0746,6.943,0.3049,1.8462,8.0746,17.0252,24.3862,0.2674,2.0443,8.4703,0.2062,1.3738,6.943
383,-1,4,10,9.1657,8.4126,8.2823,7.0569,0.2281,1.8924,8.2823,17.347,24.7702,0.4022,2.244,8.8562,0.2048,1.3706,7.0569
383.5,0,4,10,9.4473,8.7731,8.4848,7.1667,0.3269,1.9113,8.4848,17.6267,25.1317,0.3706,2.4047,9.1906,0.2039,1.3914,7.1667
384,1,4,11,9.6168,9.0809,8.6665,7.2764,0.3744,1.9663,8.6665,17.8824,25.457,0.3689,2.5066,9.4852,0.2037,1.4206,7.2764
384.5,0,4,11,9.8021,9.329,8.8187,7.3513,0.4371,2.034,8.8187,18.1227,25.7289,0.3685,2.6231,9.7293,0.2133,1.4554,7.3513
385,0,4,11,9.8989,9.4743,8.95,7.4155,0.453,2.0708,8.95,18.3166,25.9853,0.3697,2.6831,9.8841,0.2506,1.4607,7.4155
385.5,0,4,12,9.983,9.6583,9.0309,7.4522,0.4391,2.0843,9.0309,18.4781,26.1956,0.3698,2.7063,9.9495,0.2551,1.4797,7.4522
386,1,4,12,9.929,9.7062,9.1,7.5007,0.3955,2.1035,9.1,18.6256,26.3804,0.3656,2.6825,9.9812,0.2297,1.4857,7.5007
386.5,0,4,12,9.8767,9.7735,9.1463,7.5432,0.36,2.1035,9.1463,18.7432,26.5571,0.3361,2.6036,10.0034,0.1989,1.4961,7.5432
387,0,3,12,9.7839,9.7177,9.2166,7.5855,0.3402,2.0746,9.2166,18.8134,26.6747,0.4855,2.5104,9.9861,0.2053,1.5307,7.5855
387.5,1,3,12,9.8156,9.665,9.2184,7.6025,0.3558,2.0202,9.2184,18.854,26.8075,0.405,2.3659,9.9183,0.2052,1.4943,7.6025
388,1,3,11,9.7353,9.6175,9.2032,7.6273,0.4063,2.0061,9.2032,18.8645,26.9109,0.3855,2.277,9.8081,0.2045,1.4546,7.6273
388.5,1,3,11,9.6722,9.49,9.1944,7.625,0.3989,2.0259,9.1944,18.8327,26.9631,0.2138,2.2839,9.6336,0.2036,1.4683,7.625
389,0,3,11,9.4236,9.258,9.1309,7.6153,0.4043,2.0087,9.1309,18.7572,26.9694,0.3086,2.2224,9.3618,0.2065,1.4901,7.6153
389.5,0,2,11,9.3282,9.0694,9.0214,7.5769,0.3682,2.0292,9.0214,18.6692,26.9476,0.2885,2.0973,9.0319,0.209,1.4969,7.5769
390,0,2,10,9.0991,8.7383,8.9303,7.532,0.339,2.0175,8.9303,18.5373,26.9146,0.3745,1.9273,8.6666,0.2101,1.4867,7.532
390.5,0,2,10,8.7981,8.3963,8.8324,7.4791,0.3183,1.9995,8.8324,18.4275,26.5208,0.2642,1.7924,8.3619,0.2075,1.4987,7.4791
391,1,1,9,8.4064,8.0289,8.688,7.4043,0.3083,1.9513,8.688,18.2605,26.2339,0.279,1.6623,7.9968,0.2121,1.5156,7.4043
391.5,0,1,8,7.9707,7.611,8.5359,7.3418,0.2516,1.8805,8.5359,18.079,26.0107,0.2173,1.4865,7.6897,0.2149,1.521,7.3418
392,0,1,8,7.5066,7.3184,8.3419,7.2571,0.2803,1.8254,8.3419,17.8507,25.8259,0.1096,1.3235,7.3325,0.2127,1.5088,7.2571
392.5,0,1,7,6.8097,6.9588,8.1458,7.177,0.2944,1.7156,8.1458,17.6475,25.6602,-0.0314,1.1968,7.0531,0.2078,1.4456,7.177
393,0,1,7,6.3861,6.6352,7.944,7.1052,0.3039,1.6504,7.944,17.2552,25.4955,0,1.1931,6.7542,0.2077,1.3958,7.1052
393.5,0,1,6,5.9478,6.318,7.7395,7.034,0.3141,1.6007,7.7395,16.9266,25.3297,0,1.2588,6.4087,0.2089,1.3714,7.034
394,0,1,6,5.5167,6.0324,7.5472,6.9632,0.3133,1.5122,7.5472,16.6276,25.1377,-0.0063,1.2891,6.0509,0.2053,1.3492,6.9632
394.5,0.0345,1,5,5.0765,5.7198,7.3332,6.859,0.254,1.4649,7.3332,16.3454,24.9242,0.0018,1.2206,5.7494,0.2055,1.3179,6.859
395,-0.0692,1,5,4.7138,5.4216,7.0962,6.7418,0.2047,1.4302,7.0962,16.062,24.7046,0.1145,1.1705,5.4423,0.2071,1.3174,6.7418
395.5,0,1,5,4.5984,5.2734,6.8985,6.6412,0.2245,1.4283,6.8985,15.777,24.4313,0.2142,1.0991,5.3202,0.2077,1.2969,6.6412
396,-1,1,5,4.4315,5.081,6.7007,6.5467,0.2214,1.3637,6.7007,15.4941,24.1808,0.2085,1.0408,5.1381,0.1978,1.298,6.5467
396.5,0,1,5,4.2447,4.8836,6.5019,6.4509,0.2151,1.3034,6.5019,15.1999,23.8332,0.0837,1.0345,4.9556,0.197,1.2843,6.4509
397,1,1,5,4.0849,4.7048,6.3076,6.354,0.2092,1.3099,6.3076,14.8449,23.555,0.0075,1.037,4.7613,0.203,1.2788,6.354
397.5,1,1,5,3.9736,4.501,6.0741,6.2594,0.2101,1.2756,6.0741,14.4855,23.2309,0.0082,1.0704,4.5396,0.2061,1.242,6.2594
398,0,1,5,4.0039,4.3207,5.9112,6.1552,0.2098,1.2273,5.9112,14.1497,22.8553,0.0847,1.0305,4.3321,0.2037,1.2167,6.1552
398.5,0,1,5,4.0551,4.0256,5.731,6.0386,0.2087,1.1805,5.731,13.8021,22.3984,0.2174,1.0144,4.1512,0.206,1.196,6.0386
399,0,1,6,3.6863,4.0552,5.54,5.8841,0.2083,1.1185,5.54,13.4889,21.8592,0.191,0.9707,4.1356,0.2097,1.1851,5.8841
399.5,0,2,6,3.7346,3.8811,5.3126,5.7765,0.2099,1.1202,5.3126,13.2171,21.6163,0.0817,0.7786,4.1743,0.2041,1.1478,5.7765
400,-2,2,6,3.722,3.768,5.127,5.753,0.212,1.038,5.127,12.584,20.851,0,0.504,4.274,0.196,1.152,5.753