comp (1),comp_corrected (1),raman_shift (1),vidro(ex 350 5-5),plast (ex 350 5-5),comp (2),comp_corrected (2),raman_shift (2),vidro(ex 400 5-5),plast (ex 400 5-5),comp (3),comp_corrected (3),raman_shift (3),vidro(ex 450 10-10),plast (ex 450 10-10),comp (4),comp_corrected (4),raman_shift (4),vidro(ex 500 10-10),plast (ex 500 10-10)
250,261,-9742.747674,0.491,0.844,300,311,-13314.17625,0.466,0.239,350,361,-16091.95402,0.783,1.041,450,461,-18314.17625,0.462,1.077
250.5,261.5,-9669.489211,0.4981,0.5587,300.5,311.5,-13240.91778,0.2691,0.2069,350.5,361.5,-16018.69556,0.7739,1.0651,450.5,461.5,-18240.91778,0.473,1.0603
251,262,-9596.51036,0.4628,0.496,301,312,-13167.93893,0.2243,0.2196,351,362,-15945.71671,0.7955,1.0703,451,462,-18167.93893,0.4769,1.0591
251.5,262.5,-9523.809524,0.4111,0.4337,301.5,312.5,-13095.2381,0.2075,0.2536,351.5,362.5,-15873.01587,0.7799,1.0661,451.5,462.5,-18095.2381,0.4766,1.0622
252,263,-9451.385117,0.3702,0.3966,302,313,-13022.81369,0.2068,0.2639,352,363,-15800.59147,0.7825,1.0727,452,463,-18022.81369,0.4777,1.0672
252.5,263.5,-9379.235565,0.3194,0.3443,302.5,313.5,-12950.66414,0.2001,0.2786,352.5,363.5,-15728.44191,0.7882,1.0705,452.5,463.5,-17950.66414,0.4811,1.0711
253,264,-9307.359307,0.2764,0.3464,303,314,-12878.78788,0.244,0.2863,353,364,-15656.56566,0.8002,1.0677,453,464,-17878.78788,0.4832,1.0739
253.5,264.5,-9235.754793,0.2402,0.3511,303.5,314.5,-12807.18336,0.2581,0.2735,353.5,364.5,-15584.96114,0.81,1.0658,453.5,464.5,-17807.18336,0.4861,1.0776
254,265,-9164.420485,0.2306,0.384,304,315,-12735.84906,0.2655,0.2625,354,365,-15513.62683,0.8186,1.0649,454,465,-17735.84906,0.4897,1.0813
254.5,265.5,-9093.354856,0.2198,0.3718,304.5,315.5,-12664.78343,0.2703,0.2462,354.5,365.5,-15442.56121,0.8294,1.064,454.5,465.5,-17664.78343,0.494,1.0851
255,266,-9022.556391,0.2218,0.3817,305,316,-12593.98496,0.2582,0.226,355,366,-15371.76274,0.8401,1.0631,455,466,-17593.98496,0.4953,1.087
255.5,266.5,-8952.023586,0.2613,0.3939,305.5,316.5,-12523.45216,0.2316,0.2417,355.5,366.5,-15301.22994,0.8508,1.0616,455.5,466.5,-17523.45216,0.4968,1.0944
256,267,-8881.754949,0.2994,0.3847,306,317,-12453.18352,0.2007,0.2416,356,367,-15230.9613,0.862,1.0593,456,467,-17453.18352,0.5019,1.099
256.5,267.5,-8811.748999,0.3147,0.3871,306.5,317.5,-12383.17757,0.2053,0.2412,356.5,367.5,-15160.95535,0.865,1.0617,456.5,467.5,-17383.17757,0.5047,1.1055
257,268,-8742.004264,0.3059,0.3744,307,318,-12313.43284,0.2245,0.2407,357,368,-15091.21061,0.8643,1.062,457,468,-17313.43284,0.5078,1.1121
257.5,268.5,-8672.519287,0.2855,0.34,307.5,318.5,-12243.94786,0.2317,0.2412,357.5,368.5,-15021.72564,0.8684,1.0683,457.5,468.5,-17243.94786,0.5122,1.1164
258,269,-8603.292618,0.2663,0.3027,308,319,-12174.72119,0.2342,0.2405,358,369,-14952.49897,0.8656,1.0666,458,469,-17174.72119,0.5173,1.1219
258.5,269.5,-8534.32282,0.2342,0.2994,308.5,319.5,-12105.75139,0.23,0.2327,358.5,369.5,-14883.52917,0.8613,1.0724,458.5,469.5,-17105.75139,0.5213,1.1268
259,270,-8465.608466,0.2046,0.3114,309,320,-12037.03704,0.224,0.2455,359,370,-14814.81481,0.8609,1.0797,459,470,-17037.03704,0.5238,1.1309
259.5,270.5,-8397.148138,0.1665,0.3041,309.5,320.5,-11968.57671,0.2229,0.2272,359.5,370.5,-14746.35449,0.8658,1.0857,459.5,470.5,-16968.57671,0.5276,1.1395
260,271,-8328.940432,0.1741,0.2911,310,321,-11900.369,0.2125,0.237,360,371,-14678.14678,0.8639,1.0981,460,471,-16900.369,0.5319,1.1459
260.5,271.5,-8260.983952,0.2159,0.317,310.5,321.5,-11832.41252,0.2,0.2791,360.5,371.5,-14610.1903,0.8579,1.1032,460.5,471.5,-16832.41252,0.539,1.1542
261,272,-8193.277311,0.2179,0.3076,311,322,-11764.70588,0.1951,0.3103,361,372,-14542.48366,0.8581,1.1067,461,472,-16764.70588,0.5461,1.16
261.5,272.5,-8125.819135,0.1994,0.316,311.5,322.5,-11697.24771,0.2096,0.3298,361.5,372.5,-14475.02548,0.8614,1.1144,461.5,472.5,-16697.24771,0.5492,1.1681
262,273,-8058.608059,0.2327,0.3311,312,323,-11630.03663,0.2187,0.3131,362,373,-14407.81441,0.8625,1.1176,462,473,-16630.03663,0.555,1.1793
262.5,273.5,-7991.642727,0.2705,0.3326,312.5,323.5,-11563.0713,0.221,0.3248,362.5,373.5,-14340.84908,0.861,1.1189,462.5,473.5,-16563.0713,0.5619,1.1915
263,274,-7924.921794,0.2958,0.3136,313,324,-11496.35036,0.2226,0.3545,363,374,-14274.12814,0.8603,1.1189,463,474,-16496.35036,0.5705,1.2029
263.5,274.5,-7858.443924,0.3042,0.3268,313.5,324.5,-11429.8725,0.2157,0.3607,363.5,374.5,-14207.65027,0.8633,1.1217,463.5,474.5,-16429.8725,0.579,1.2186
264,275,-7792.207792,0.3121,0.3674,314,325,-11363.63636,0.2109,0.3626,364,375,-14141.41414,0.8627,1.1244,464,475,-16363.63636,0.5868,1.2351
264.5,275.5,-7726.212082,0.3105,0.3932,314.5,325.5,-11297.64065,0.2072,0.3268,364.5,375.5,-14075.41843,0.8645,1.1125,464.5,475.5,-16297.64065,0.5941,1.2539
265,276,-7660.455487,0.2918,0.3597,315,326,-11231.88406,0.2017,0.3235,365,376,-14009.66184,0.8688,1.1094,465,476,-16231.88406,0.6027,1.2725
265.5,276.5,-7594.936709,0.266,0.3981,315.5,326.5,-11166.36528,0.192,0.3271,365.5,376.5,-13944.14306,0.8681,1.1153,465.5,476.5,-16166.36528,0.6084,1.2938
266,277,-7529.654461,0.2195,0.4163,316,327,-11101.08303,0.1829,0.3029,366,377,-13878.86081,0.866,1.1162,466,477,-16101.08303,0.6117,1.312
266.5,277.5,-7464.607465,0.203,0.4284,316.5,327.5,-11036.03604,0.191,0.2677,366.5,377.5,-13813.81381,0.8713,1.1211,466.5,477.5,-16036.03604,0.6058,1.319
267,278,-7399.79445,0.2096,0.4175,317,328,-10971.22302,0.1803,0.2203,367,378,-13749.0008,0.873,1.1247,467,478,-15971.22302,0.5979,1.3067
267.5,278.5,-7335.214157,0.246,0.3617,317.5,328.5,-10906.64273,0.2186,0.2274,367.5,378.5,-13684.42051,0.8729,1.1297,467.5,478.5,-15906.64273,0.5842,1.2777
268,279,-7270.865335,0.2684,0.3437,318,329,-10842.29391,0.2491,0.2497,368,379,-13620.07168,0.8806,1.1283,468,479,-15842.29391,0.5665,1.2395
268.5,279.5,-7206.746742,0.2762,0.3445,318.5,329.5,-10778.17531,0.2559,0.2385,368.5,379.5,-13555.95309,0.8819,1.1367,468.5,479.5,-15778.17531,0.5463,1.1985
269,280,-7142.857143,0.3144,0.3138,319,330,-10714.28571,0.2571,0.2144,369,380,-13492.06349,0.8909,1.1469,469,480,-15714.28571,0.525,1.1604
269.5,280.5,-7079.195314,0.3373,0.329,319.5,330.5,-10650.62389,0.2569,0.2278,369.5,380.5,-13428.40166,0.9009,1.1512,469.5,480.5,-15650.62389,0.5171,1.1513
270,281,-7015.760041,0.3305,0.3696,320,331,-10587.18861,0.2436,0.2391,370,381,-13364.96639,0.9074,1.1573,470,481,-15587.18861,0.5288,1.217
270.5,281.5,-6952.550114,0.3123,0.472,320.5,331.5,-10523.97869,0.2172,0.2494,370.5,381.5,-13301.75646,0.9098,1.1678,470.5,481.5,-15523.97869,0.5832,1.4074
271,282,-6889.564336,0.3256,0.5109,321,332,-10460.99291,0.1958,0.2585,371,382,-13238.77069,0.9191,1.1708,471,482,-15460.99291,0.6743,1.7422
271.5,282.5,-6826.801517,0.3125,0.5096,321.5,332.5,-10398.23009,0.1918,0.2658,371.5,382.5,-13176.00787,0.9232,1.1646,471.5,482.5,-15398.23009,0.8385,2.3312
272,283,-6764.260475,0.2791,0.4806,322,333,-10335.68905,0.1766,0.2706,372,383,-13113.46682,0.9168,1.1548,472,483,-15335.68905,1.1034,3.241
272.5,283.5,-6701.940035,0.2942,0.4096,322.5,333.5,-10273.36861,0.204,0.2746,372.5,383.5,-13051.14638,0.9081,1.156,472.5,483.5,-15273.36861,1.5002,4.5606
273,284,-6639.839034,0.2754,0.4078,323,334,-10211.26761,0.2106,0.2729,373,384,-12989.04538,0.9109,1.1587,473,484,-15211.26761,2.0619,6.4505
273.5,284.5,-6577.956314,0.2605,0.3396,323.5,334.5,-10149.38489,0.2078,0.2514,373.5,384.5,-12927.16266,0.9173,1.1588,473.5,484.5,-15149.38489,2.8179,8.9728
274,285,-6516.290727,0.2737,0.273,324,335,-10087.7193,0.2153,0.2279,374,385,-12865.49708,0.9235,1.1586,474,485,-15087.7193,3.8253,12.2934
274.5,285.5,-6454.841131,0.2736,0.2922,324.5,335.5,-10026.2697,0.2231,0.2391,374.5,385.5,-12804.04748,0.9334,1.1536,474.5,485.5,-15026.2697,5.1364,16.6291
275,286,-6393.606394,0.2569,0.2904,325,336,-9965.034965,0.2245,0.2318,375,386,-12742.81274,0.9341,1.1692,475,486,-14965.03497,6.8162,22.1118
275.5,286.5,-6332.58539,0.2478,0.2878,325.5,336.5,-9904.013962,0.225,0.2187,375.5,386.5,-12681.79174,0.9323,1.185,475.5,486.5,-14904.01396,8.8912,28.9496
276,287,-6271.777003,0.266,0.3489,326,337,-9843.205575,0.2288,0.2451,376,387,-12620.98335,0.9296,1.1879,476,487,-14843.20557,11.4353,37.1899
276.5,287.5,-6211.180124,0.2566,0.4001,326.5,337.5,-9782.608696,0.2158,0.2662,376.5,387.5,-12560.38647,0.9254,1.1953,476.5,487.5,-14782.6087,14.5219,47.2109
277,288,-6150.793651,0.2543,0.4572,327,338,-9722.222222,0.2307,0.2604,377,388,-12500,0.9122,1.2193,477,488,-14722.22222,18.197,59.1092
277.5,288.5,-6090.616489,0.2523,0.4842,327.5,338.5,-9662.045061,0.2505,0.2839,377.5,388.5,-12439.82284,0.907,1.2404,477.5,488.5,-14662.04506,22.5669,73.1523
278,289,-6030.647553,0.2331,0.5255,328,339,-9602.076125,0.2586,0.3369,378,389,-12379.8539,0.9107,1.2569,478,489,-14602.07612,27.626,89.3173
278.5,289.5,-5970.885764,0.2217,0.5029,328.5,339.5,-9542.314335,0.2664,0.3545,378.5,389.5,-12320.09211,0.9045,1.2784,478.5,489.5,-14542.31434,33.4083,107.6033
279,290,-5911.330049,0.251,0.4625,329,340,-9482.758621,0.268,0.361,379,390,-12260.5364,0.8982,1.2998,479,490,-14482.75862,39.9126,128.1864
279.5,290.5,-5851.979346,0.2257,0.4056,329.5,340.5,-9423.407917,0.2573,0.3375,379.5,390.5,-12201.1857,0.9022,1.31,479.5,490.5,-14423.40792,47.2148,151.1848
280,291,-5792.832597,0.2467,0.3179,330,341,-9364.261168,0.2541,0.2954,380,391,-12142.03895,0.9057,1.3098,480,491,-14364.26117,55.2717,176.5075
280.5,291.5,-5733.888753,0.2569,0.2778,330.5,341.5,-9305.317324,0.2431,0.2404,380.5,391.5,-12083.0951,0.9113,1.3208,480.5,491.5,-14305.31732,64.0852,203.9697
281,292,-5675.146771,0.249,0.2883,331,342,-9246.575342,0.215,0.25,381,392,-12024.35312,0.9174,1.3314,481,492,-14246.57534,73.5951,233.3937
281.5,292.5,-5616.605617,0.2691,0.269,331.5,342.5,-9188.034188,0.188,0.2683,381.5,392.5,-11965.81197,0.9107,1.3262,481.5,492.5,-14188.03419,83.7497,264.6761
282,293,-5558.264261,0.2798,0.2994,332,343,-9129.692833,0.2006,0.3211,382,393,-11907.47061,0.9022,1.3334,482,493,-14129.69283,94.461,297.5046
282.5,293.5,-5500.121684,0.2731,0.309,332.5,343.5,-9071.550256,0.204,0.3966,382.5,393.5,-11849.32803,0.9184,1.344,482.5,493.5,-14071.55026,105.6146,331.4837
283,294,-5442.176871,0.2608,0.3334,333,344,-9013.605442,0.2036,0.4508,383,394,-11791.38322,0.9325,1.3369,483,494,-14013.60544,117.0571,366.2123
283.5,294.5,-5384.428814,0.2565,0.3105,333.5,344.5,-8955.857385,0.2121,0.4515,383.5,394.5,-11733.63516,0.9435,1.3313,483.5,494.5,-13955.85739,128.6404,401.3585
284,295,-5326.876513,0.2851,0.2901,334,345,-8898.305085,0.2187,0.478,384,395,-11676.08286,0.9466,1.3252,484,495,-13898.30508,140.2765,436.3449
284.5,295.5,-5269.518975,0.2234,0.3229,334.5,345.5,-8840.947547,0.2266,0.4469,384.5,395.5,-11618.72532,0.9421,1.3199,484.5,495.5,-13840.94755,151.7748,470.7518
285,296,-5212.355212,0.2815,0.3451,335,346,-8783.783784,0.2267,0.3957,385,396,-11561.56156,0.936,1.3254,485,496,-13783.78378,162.9952,503.7919
285.5,296.5,-5155.384245,0.2962,0.3439,335.5,346.5,-8726.812816,0.2448,0.3323,385.5,396.5,-11504.59059,0.9399,1.3372,485.5,496.5,-13726.81282,173.6819,535.0911
286,297,-5098.605099,0.292,0.3234,336,347,-8670.03367,0.2389,0.3032,386,397,-11447.81145,0.9275,1.3406,486,497,-13670.03367,183.6657,563.903
286.5,297.5,-5042.016807,0.3452,0.3663,336.5,347.5,-8613.445378,0.274,0.3166,386.5,397.5,-11391.22316,0.9232,1.3499,486.5,497.5,-13613.44538,192.8506,589.9073
287,298,-4985.618408,0.347,0.432,337,348,-8557.04698,0.309,0.344,387,398,-11334.82476,0.9193,1.3727,487,498,-13557.04698,201.0284,612.496
287.5,298.5,-4929.40895,0.3421,0.4707,337.5,348.5,-8500.837521,0.3324,0.3291,387.5,398.5,-11278.6153,0.9272,1.3758,487.5,498.5,-13500.83752,208.0844,631.3664
288,299,-4873.387482,0.329,0.4642,338,349,-8444.816054,0.3423,0.299,388,399,-11222.59383,0.9362,1.3795,488,499,-13444.81605,213.7624,645.8087
288.5,299.5,-4817.553065,0.304,0.403,338.5,349.5,-8388.981636,0.3397,0.2791,388.5,399.5,-11166.75941,0.9295,1.3865,488.5,499.5,-13388.98164,218.0453,655.8994
289,300,-4761.904762,0.2915,0.3931,339,350,-8333.333333,0.3247,0.2565,389,400,-11111.11111,0.9306,1.3997,489,500,-13333.33333,220.7909,661.1235
289.5,300.5,-4706.441645,0.2263,0.3897,339.5,350.5,-8277.870216,0.2962,0.2773,389.5,400.5,-11055.64799,0.9388,1.4094,489.5,500.5,-13277.87022,222.0448,661.6854
290,301,-4651.162791,0.2295,0.34,340,351,-8222.591362,0.2417,0.2646,390,401,-11000.36914,0.9565,1.4171,490,501,-13222.59136,221.7596,657.4815
290.5,301.5,-4596.067283,0.1981,0.2571,340.5,351.5,-8167.495854,0.2486,0.3062,390.5,401.5,-10945.27363,0.9661,1.4396,490.5,501.5,-13167.49585,219.9478,648.3794
291,302,-4541.15421,0.2118,0.2524,341,352,-8112.582781,0.2402,0.3443,391,402,-10890.36056,0.9634,1.4639,491,502,-13112.58278,216.594,634.7421
291.5,302.5,-4486.422668,0.2526,0.3444,341.5,352.5,-8057.85124,0.2688,0.3886,391.5,402.5,-10835.62902,0.956,1.4595,491.5,502.5,-13057.85124,211.7384,616.8723
292,303,-4431.871759,0.2465,0.4063,342,353,-8003.30033,0.275,0.3822,392,403,-10781.07811,0.9635,1.4692,492,503,-13003.30033,205.5042,595.0562
292.5,303.5,-4377.500588,0.298,0.4427,342.5,353.5,-7948.92916,0.2829,0.3636,392.5,403.5,-10726.70694,0.9703,1.4731,492.5,503.5,-12948.92916,198.0188,569.8509
293,304,-4323.308271,0.319,0.439,343,354,-7894.736842,0.2698,0.3929,393,404,-10672.51462,0.967,1.468,493,504,-12894.73684,189.3757,541.7122
293.5,304.5,-4269.293924,0.3603,0.4455,343.5,354.5,-7840.722496,0.2477,0.3983,393.5,404.5,-10618.50027,0.963,1.4697,493.5,504.5,-12840.7225,179.7676,511.1296
294,305,-4215.456674,0.3854,0.4384,344,355,-7786.885246,0.2298,0.4117,394,405,-10564.66302,0.9677,1.4687,494,505,-12786.88525,169.3891,478.512
294.5,305.5,-4161.795651,0.3601,0.4027,344.5,355.5,-7733.224223,0.2133,0.4581,394.5,405.5,-10511.002,0.9584,1.4813,494.5,505.5,-12733.22422,158.4082,444.6127
295,306,-4108.309991,0.3384,0.3163,345,356,-7679.738562,0.1758,0.4364,395,406,-10457.51634,0.9586,1.5003,495,506,-12679.73856,146.9936,409.711
295.5,306.5,-4054.998835,0.3016,0.2334,345.5,356.5,-7626.427406,0.1783,0.4533,395.5,406.5,-10404.20518,0.9647,1.511,495.5,506.5,-12626.42741,135.2864,374.5831
296,307,-4001.861331,0.2969,0.2151,346,357,-7573.289902,0.1746,0.423,396,407,-10351.06768,0.9589,1.5049,496,507,-12573.2899,123.4894,339.5218
296.5,307.5,-3948.896632,0.2938,0.2456,346.5,357.5,-7520.325203,0.1997,0.3466,396.5,407.5,-10298.10298,0.9596,1.5,496.5,507.5,-12520.3252,111.8136,305.1705
297,308,-3896.103896,0.2848,0.2982,347,358,-7467.532468,0.2208,0.312,397,408,-10245.31025,0.9508,1.4922,497,508,-12467.53247,100.3537,271.989
297.5,308.5,-3843.482288,0.3016,0.2728,347.5,358.5,-7414.910859,0.2487,0.2746,397.5,408.5,-10192.68864,0.9594,1.5013,497.5,508.5,-12414.91086,89.2555,240.2814
298,309,-3791.030975,0.298,0.3399,348,359,-7362.459547,0.2588,0.3208,398,409,-10140.23732,0.9666,1.5129,498,509,-12362.45955,78.598,210.2139
298.5,309.5,-3738.749135,0.3128,0.3964,348.5,359.5,-7310.177706,0.268,0.3188,398.5,409.5,-10087.95548,0.9647,1.5236,498.5,509.5,-12310.17771,68.5546,182.2185
299,310,-3686.635945,0.3031,0.4061,349,360,-7258.064516,0.2747,0.3711,399,410,-10035.84229,0.9673,1.5398,499,510,-12258.06452,59.1748,156.1436
299.5,310.5,-3634.690591,0.2948,0.4522,349.5,360.5,-7206.119163,0.2729,0.3674,399.5,410.5,-9983.89694,0.9693,1.5498,499.5,510.5,-12206.11916,50.587,132.6
300,311,-3582.912265,0.2549,0.3975,350,361,-7154.340836,0.2485,0.4171,400,411,-9932.118614,0.9758,1.5533,500,511,-12154.34084,42.7846,111.347
300.5,311.5,-3531.300161,0.2281,0.4195,350.5,361.5,-7102.728732,0.2314,0.4107,400.5,411.5,-9880.50651,0.977,1.5717,500.5,511.5,-12102.72873,35.7454,92.2741
301,312,-3479.85348,0.2022,0.4227,351,362,-7051.282051,0.2239,0.4228,401,412,-9829.059829,0.9792,1.59,501,512,-12051.28205,29.4634,75.5327
301.5,312.5,-3428.571429,0.1985,0.4439,351.5,362.5,-7000,0.2351,0.4394,401.5,412.5,-9777.777778,0.9807,1.5983,501.5,512.5,-12000,23.9413,60.9787
302,313,-3377.453218,0.1976,0.443,352,363,-6948.881789,0.2166,0.467,402,413,-9726.659567,0.9856,1.607,502,513,-11948.88179,19.1849,48.531
302.5,313.5,-3326.498063,0.1827,0.3683,352.5,363.5,-6897.926635,0.2452,0.5118,402.5,413.5,-9675.704413,0.9763,1.6199,502.5,513.5,-11897.92663,15.137,38.0893
303,314,-3275.705187,0.2183,0.3656,353,364,-6847.133758,0.2694,0.5104,403,414,-9624.911536,0.9754,1.6318,503,514,-11847.13376,11.7129,29.3255
303.5,314.5,-3225.073813,0.2555,0.389,353.5,364.5,-6796.502385,0.2749,0.5078,403.5,414.5,-9574.280163,0.9769,1.6488,503.5,514.5,-11796.50238,8.8951,22.0883
304,315,-3174.603175,0.2885,0.384,354,365,-6746.031746,0.2893,0.514,404,415,-9523.809524,0.9808,1.6669,504,515,-11746.03175,6.617,16.3071
304.5,315.5,-3124.292506,0.3153,0.3998,354.5,365.5,-6695.721078,0.3094,0.45,404.5,415.5,-9473.498855,0.9742,1.6871,504.5,515.5,-11695.72108,4.8295,11.7922
305,316,-3074.141049,0.3084,0.3435,355,366,-6645.56962,0.3144,0.5416,405,416,-9423.347398,0.9767,1.711,505,516,-11645.56962,3.4368,8.2572
305.5,316.5,-3024.148048,0.2971,0.3797,355.5,366.5,-6595.576619,0.3038,0.5121,405.5,416.5,-9373.354397,0.9805,1.7206,505.5,516.5,-11595.57662,2.397,5.6509
306,317,-2974.312753,0.3073,0.4186,356,367,-6545.741325,0.3156,0.5627,406,417,-9323.519103,0.9795,1.7326,506,517,-11545.74132,1.6347,3.753
306.5,317.5,-2924.634421,0.3138,0.4884,356.5,367.5,-6496.062992,0.3122,0.6329,406.5,417.5,-9273.84077,0.9815,1.7458,506.5,517.5,-11496.06299,1.1006,2.4686
307,318,-2875.112309,0.3044,0.5432,357,368,-6446.540881,0.2924,0.6332,407,418,-9224.318658,0.9834,1.7682,507,518,-11446.54088,0.7507,1.6384
307.5,318.5,-2825.745683,0.2958,0.5271,357.5,368.5,-6397.174254,0.3179,0.6205,407.5,418.5,-9174.952032,0.9974,1.8106,507.5,518.5,-11397.17425,0.5249,1.1117
308,319,-2776.533811,0.3117,0.5308,358,369,-6347.962382,0.2977,0.5656,408,419,-9125.74016,1.0031,1.8253,508,519,-11347.96238,0.3914,0.8144
308.5,319.5,-2727.475967,0.3154,0.6001,358.5,369.5,-6298.904538,0.2702,0.5127,408.5,419.5,-9076.682316,1.0078,1.8431,508.5,519.5,-11298.90454,0.3384,0.6974
309,320,-2678.571429,0.2981,0.5514,359,370,-6250,0.2591,0.5021,409,420,-9027.777778,1.0085,1.8626,509,520,-11250,0.346,0.6977
309.5,320.5,-2629.819478,0.2682,0.5025,359.5,370.5,-6201.24805,0.2309,0.4582,409.5,420.5,-8979.025828,1.0246,1.8778,509.5,520.5,-11201.24805,0.3725,0.7667
310,321,-2581.219404,0.2495,0.4535,360,371,-6152.647975,0.1988,0.5365,410,421,-8930.425753,1.043,1.8777,510,521,-11152.64798,0.4015,0.8421
310.5,321.5,-2532.770495,0.2236,0.4911,360.5,371.5,-6104.199067,0.1778,0.4972,410.5,421.5,-8881.976845,1.0615,1.8936,510.5,521.5,-11104.19907,0.431,0.914
311,322,-2484.47205,0.2468,0.5483,361,372,-6055.900621,0.1824,0.4958,411,422,-8833.678399,1.0696,1.9038,511,522,-11055.90062,0.4535,0.9718
311.5,322.5,-2436.323367,0.2395,0.6294,361.5,372.5,-6007.751938,0.1965,0.5553,411.5,422.5,-8785.529716,1.0661,1.9061,511.5,522.5,-11007.75194,0.4672,1.0178
312,323,-2388.323751,0.2415,0.6266,362,373,-5959.752322,0.225,0.5178,412,423,-8737.5301,1.0617,1.9175,512,523,-10959.75232,0.4777,1.0439
312.5,323.5,-2340.47251,0.2257,0.607,362.5,373.5,-5911.901082,0.257,0.4706,412.5,423.5,-8689.67886,1.0568,1.9259,512.5,523.5,-10911.90108,0.4796,1.0468
313,324,-2292.768959,0.2036,0.6918,363,374,-5864.197531,0.2704,0.4924,413,424,-8641.975309,1.0694,1.9353,513,524,-10864.19753,0.4799,1.0388
313.5,324.5,-2245.212415,0.1891,0.7372,363.5,374.5,-5816.640986,0.2844,0.5039,413.5,424.5,-8594.418764,1.0839,1.9536,513.5,524.5,-10816.64099,0.4763,1.0274
314,325,-2197.802198,0.1945,0.6792,364,375,-5769.230769,0.2886,0.5939,414,425,-8547.008547,1.091,1.9617,514,525,-10769.23077,0.4667,1.0138
314.5,325.5,-2150.537634,0.2132,0.7135,364.5,375.5,-5721.966206,0.2868,0.6871,414.5,425.5,-8499.743984,1.0964,1.983,514.5,525.5,-10721.96621,0.4572,1.0009
315,326,-2103.418054,0.2484,0.7886,365,376,-5674.846626,0.2653,0.7897,415,426,-8452.624404,1.0994,2.0002,515,526,-10674.84663,0.4483,0.9891
315.5,326.5,-2056.442792,0.2778,0.8014,365.5,376.5,-5627.871363,0.2421,0.8104,415.5,426.5,-8405.649141,1.1056,2.0107,515.5,526.5,-10627.87136,0.441,0.9742
316,327,-2009.611184,0.2998,0.7865,366,377,-5581.039755,0.2178,0.7992,416,427,-8358.817533,1.109,2.0303,516,527,-10581.03976,0.4352,0.9585
316.5,327.5,-1962.922574,0.3121,0.758,366.5,377.5,-5534.351145,0.2018,0.8564,416.5,427.5,-8312.128923,1.1082,2.0344,516.5,527.5,-10534.35115,0.4298,0.9464
317,328,-1916.376307,0.327,0.71,367,378,-5487.804878,0.2241,0.8466,417,428,-8265.582656,1.1229,2.0407,517,528,-10487.80488,0.4217,0.9322
317.5,328.5,-1869.971733,0.3095,0.702,367.5,378.5,-5441.400304,0.2417,0.8285,417.5,428.5,-8219.178082,1.1255,2.0305,517.5,528.5,-10441.4003,0.4161,0.9191
318,329,-1823.708207,0.2859,0.7554,368,379,-5395.136778,0.256,0.8252,418,429,-8172.914556,1.1362,2.0254,518,529,-10395.13678,0.4124,0.907
318.5,329.5,-1777.585086,0.2657,0.7716,368.5,379.5,-5349.013657,0.2682,0.8342,418.5,429.5,-8126.791435,1.1441,2.0436,518.5,529.5,-10349.01366,0.4087,0.8947
319,330,-1731.601732,0.2695,0.8133,369,380,-5303.030303,0.2798,0.8397,419,430,-8080.808081,1.1423,2.0156,519,530,-10303.0303,0.4079,0.8831
319.5,330.5,-1685.75751,0.2523,0.8796,369.5,380.5,-5257.186082,0.2893,0.8938,419.5,430.5,-8034.963859,1.0318,1.8106,519.5,530.5,-10257.18608,0.4067,0.8738
320,331,-1640.051791,0.2888,0.8389,370,381,-5211.480363,0.2546,0.9397,420,431,-7989.25814,0.9892,1.7298,520,531,-10211.48036,0.4016,0.8654
320.5,331.5,-1594.483947,0.318,0.7511,370.5,381.5,-5165.912519,0.2613,1.0205,420.5,431.5,-7943.690297,1.0596,1.8989,520.5,531.5,-10165.91252,0.3973,0.8562
321,332,-1549.053356,0.3337,0.7096,371,382,-5120.481928,0.2688,1.0939,421,432,-7898.259705,1.1782,2.2508,521,532,-10120.48193,0.3903,0.8499
321.5,332.5,-1503.759398,0.348,0.699,371.5,382.5,-5075.18797,0.2388,1.1828,421.5,432.5,-7852.965748,1.389,2.8131,521.5,532.5,-10075.18797,0.3818,0.8439
322,333,-1458.601459,0.3551,0.7369,372,383,-5030.03003,0.2768,1.1587,422,433,-7807.807808,1.685,3.4768,522,533,-10030.03003,0.3742,0.8396
322.5,333.5,-1413.578925,0.3615,0.7622,372.5,383.5,-4985.007496,0.3417,1.1465,422.5,433.5,-7762.785274,1.7671,3.7538,522.5,533.5,-9985.007496,0.361,0.8343
323,334,-1368.691189,0.3505,0.8106,373,384,-4940.11976,0.3529,1.0857,423,434,-7717.897538,2.2011,4.8568,523,534,-9940.11976,0.35,0.8291
323.5,334.5,-1323.937647,0.3268,0.8457,373.5,384.5,-4895.366218,0.3514,1.0351,423.5,434.5,-7673.143996,2.8211,6.36,523.5,534.5,-9895.366218,0.3356,0.8262
324,335,-1279.317697,0.3116,0.9657,374,385,-4850.746269,0.3977,1.0092,424,435,-7628.524046,4.0129,9.1858,524,535,-9850.746269,0.321,0.8237
324.5,335.5,-1234.830743,0.2587,1.0179,374.5,385.5,-4806.259314,0.3524,0.9822,424.5,435.5,-7584.037092,5.9282,13.723,524.5,535.5,-9806.259314,0.31,0.8205
325,336,-1190.47619,0.2667,1.0606,375,386,-4761.904762,0.3936,1.0599,425,436,-7539.68254,8.1266,19.3145,525,536,-9761.904762,0.3013,0.8149
325.5,336.5,-1146.253449,0.2554,1.1657,375.5,386.5,-4717.682021,0.4295,1.176,425.5,436.5,-7495.459799,11.1082,26.7149,525.5,536.5,-9717.682021,0.2933,0.8069
326,337,-1102.161933,0.249,1.1933,376,387,-4673.590504,0.4853,1.2669,426,437,-7451.368282,14.4207,34.788,526,537,-9673.590504,0.2888,0.7975
326.5,337.5,-1058.201058,0.2482,1.2462,376.5,387.5,-4629.62963,0.5106,1.1961,426.5,437.5,-7407.407407,18.473,44.9699,526.5,537.5,-9629.62963,0.2843,0.787
327,338,-1014.370245,0.2661,1.3292,377,388,-4585.798817,0.5436,1.0927,427,438,-7363.576594,23.85,58.0243,527,538,-9585.798817,0.2816,0.7758
327.5,338.5,-970.6689175,0.2061,1.2812,377.5,388.5,-4542.097489,0.6245,1.0649,427.5,438.5,-7319.875267,30.8121,74.1527,527.5,538.5,-9542.097489,0.2821,0.7592
328,339,-927.0965023,0.1633,1.148,378,389,-4498.525074,0.641,1.0563,428,439,-7276.302852,38.986,93.0179,528,539,-9498.525074,0.2828,0.7441
328.5,339.5,-883.65243,0.1628,0.9344,378.5,389.5,-4455.081001,0.7679,1.2097,428.5,439.5,-7232.858779,48.349,114.8256,528.5,539.5,-9455.081001,0.2915,0.7303
329,340,-840.3361345,0.2546,1.17,379,390,-4411.764706,1.1733,1.9912,429,440,-7189.542484,58.5771,139.1547,529,540,-9411.764706,0.2976,0.7163
329.5,340.5,-797.1470527,0.3785,1.7525,379.5,390.5,-4368.575624,1.768,3.6463,429.5,440.5,-7146.353402,70.3193,166.4546,529.5,540.5,-9368.575624,0.3019,0.7009
330,341,-754.0846251,0.7329,2.9115,380,391,-4325.513196,2.8981,6.3302,430,441,-7103.290974,83.8878,198.3244,530,541,-9325.513196,0.3053,0.6866
330.5,341.5,-711.1482953,1.5317,5.236,380.5,391.5,-4282.576867,4.5581,10.5747,430.5,441.5,-7060.354645,99.2391,234.0921,530.5,541.5,-9282.576867,0.3099,0.6735
331,342,-668.3375104,2.5641,8.5281,381,392,-4239.766082,7.7674,18.1271,431,442,-7017.54386,116.1848,273.0327,531,542,-9239.766082,0.3105,0.6615
331.5,342.5,-625.6517205,4.3678,14.9408,381.5,392.5,-4197.080292,14.4132,32.4352,431.5,442.5,-6974.85807,134.0676,314.0502,531.5,542.5,-9197.080292,0.3132,0.6514
332,343,-583.090379,6.8485,23.3181,382,393,-4154.51895,23.9479,53.8745,432,443,-6932.296728,151.8884,355.7549,532,543,-9154.51895,0.3152,0.6423
332.5,343.5,-540.6529424,10.7119,36.579,382.5,393.5,-4112.081514,34.7925,76.5677,432.5,443.5,-6889.859292,171.6174,401.4861,532.5,543.5,-9112.081514,0.3152,0.6348
333,344,-498.3388704,16.9844,56.6668,383,394,-4069.767442,51.1961,110.2252,433,444,-6847.54522,193.1387,450.9089,533,544,-9069.767442,0.3154,0.632
333.5,344.5,-456.147626,24.8235,81.8249,383.5,394.5,-4027.576197,70.7856,152.3718,433.5,444.5,-6805.353975,215.4463,502.1153,533.5,544.5,-9027.576197,0.3134,0.6311
334,345,-414.0786749,33.9908,111.7638,384,395,-3985.507246,94.5607,202.4352,434,445,-6763.285024,238.7352,554.9888,534,545,-8985.507246,0.3102,0.631
334.5,345.5,-372.1314865,46.3723,148.4357,384.5,395.5,-3943.560058,118.7916,256.085,434.5,445.5,-6721.337836,261.8546,607.7902,534.5,545.5,-8943.560058,0.3072,0.631
335,346,-330.3055326,61.6098,192.3706,385,396,-3901.734104,144.7035,311.2647,435,446,-6679.511882,284.3459,659.7539,535,546,-8901.734104,0.3039,0.6333
335.5,346.5,-288.6002886,78.3397,240.285,385.5,396.5,-3860.02886,170.9936,368.1927,435.5,446.5,-6637.806638,306.4755,710.6998,535.5,546.5,-8860.02886,0.2989,0.6368
336,347,-247.0152326,94.7727,288.5261,386,397,-3818.443804,196.3448,424.8298,436,447,-6596.221582,327.7557,758.9398,536,547,-8818.443804,0.2947,0.64
336.5,347.5,-205.5498458,111.5662,338.7622,386.5,397.5,-3776.978417,220.4949,479.3344,436.5,447.5,-6554.756195,348.3024,805.6173,536.5,547.5,-8776.978417,0.2876,0.6465
337,348,-164.2036125,127.0543,384.7075,387,398,-3735.632184,241.2955,525.6847,437,448,-6513.409962,367.9544,847.5263,537,548,-8735.632184,0.2807,0.6529
337.5,348.5,-122.9760197,141.9818,425.3135,387.5,398.5,-3694.404591,257.391,557.8519,437.5,448.5,-6472.182369,385.7472,885.8874,537.5,548.5,-8694.404591,0.2707,0.6559
338,349,-81.86655751,155.0214,461.0768,388,399,-3653.295129,271.3005,585.2229,438,449,-6431.072907,401.2921,918.8714,538,549,-8653.295129,0.2627,0.6616
338.5,349.5,-40.87471899,164.0731,485.4924,388.5,399.5,-3612.30329,279.9471,603.2034,438.5,449.5,-6390.081068,414.5217,947.7324,538.5,549.5,-8612.30329,0.2585,0.6651
339,350,0,168.8603,497.8102,389,400,-3571.428571,282.46,606.8768,439,450,-6349.206349,424.8583,970.8944,539,550,-8571.428571,0.2469,0.6655
339.5,350.5,40.75810067,172.5914,502.386,389.5,400.5,-3530.670471,275.0251,592.08,439.5,450.5,-6308.448249,432.7072,987.6123,539.5,550.5,-8530.670471,0.2379,0.663
340,351,81.4000814,171.3256,493.1243,390,401,-3490.02849,262.287,569.5379,440,451,-6267.806268,437.4782,998.0435,540,551,-8490.02849,0.2285,0.66
340.5,351.5,121.9264377,163.6001,467.0891,390.5,401.5,-3449.502134,244.4816,530.8038,440.5,451.5,-6227.279911,439.1484,999.999,540.5,551.5,-8449.502134,0.2189,0.6549
341,352,162.3376623,151.6106,429.1693,391,402,-3409.090909,220.5684,472.4914,441,452,-6186.868687,437.3284,998.1277,541,552,-8409.090909,0.2121,0.6469
341.5,352.5,202.6342452,137.6411,386.9012,391.5,402.5,-3368.794326,191.1298,404.4157,441.5,452.5,-6146.572104,432.4969,990.1639,541.5,552.5,-8368.794326,0.2086,0.6377
342,353,242.8166734,121.4769,338.8381,392,403,-3328.611898,160.0121,333.6658,442,453,-6106.389676,424.7513,974.091,542,553,-8328.611898,0.204,0.6259
342.5,353.5,282.8854314,104.8108,288.4448,392.5,403.5,-3288.54314,130.86,268.0328,442.5,453.5,-6066.320918,414.9703,954.0306,542.5,553.5,-8288.54314,0.2005,0.616
343,354,322.8410008,88.3678,241.3092,393,404,-3248.587571,104.415,210.5014,443,454,-6026.365348,402.3377,926.8998,543,554,-8248.587571,0.1989,0.6055
343.5,354.5,362.6838606,73.0519,197.3469,393.5,404.5,-3208.744711,82.5414,165.4502,443.5,454.5,-5986.522489,387.345,894.1238,543.5,554.5,-8208.744711,0.2002,0.5931
344,355,402.4144869,59.2257,158.7333,394,405,-3169.014085,62.9077,127.0016,444,455,-5946.791862,370.405,857.273,544,555,-8169.014085,0.2016,0.5823
344.5,355.5,442.0333534,48.0433,127.0481,394.5,405.5,-3129.395218,45.837,97.5248,444.5,455.5,-5907.172996,352.4407,818.6185,544.5,555.5,-8129.395218,0.2031,0.5734
345,356,481.540931,36.8365,96.2479,395,406,-3089.88764,33.401,80.3466,445,456,-5867.665418,332.7172,775.6739,545,556,-8089.88764,0.2063,0.5654
345.5,356.5,520.9376878,26.2754,68.1367,395.5,406.5,-3050.490884,24.8032,60.6589,445.5,456.5,-5828.268661,311.3426,728.1864,545.5,556.5,-8050.490884,0.2107,0.558
346,357,560.2240896,18.1927,45.9056,396,407,-3011.204482,17.3266,39.2565,446,457,-5788.98226,289.145,677.886,546,557,-8011.204482,0.216,0.5537
346.5,357.5,599.4005994,12.1495,30.1865,396.5,407.5,-2972.027972,10.0904,22.848,446.5,457.5,-5749.80575,266.5271,626.0726,546.5,557.5,-7972.027972,0.2215,0.5496
347,358,638.4676776,7.3378,18.5772,397,408,-2932.960894,5.0286,11.8023,447,458,-5710.738672,244.2521,573.5625,547,558,-7932.960894,0.2267,0.5452
347.5,358.5,677.425782,3.8156,10.5349,397.5,408.5,-2894.002789,2.6869,6.5705,447.5,458.5,-5671.780567,222.5035,523.7187,547.5,558.5,-7894.002789,0.2307,0.5406
348,359,716.2753681,1.847,5.4168,398,409,-2855.153203,1.3866,3.207,448,459,-5632.930981,201.0541,473.4881,548,559,-7855.153203,0.2348,0.5381
348.5,359.5,755.0168885,0.9752,2.8251,398.5,409.5,-2816.411683,1.1639,2.6747,448.5,459.5,-5594.189461,180.0572,425.175,548.5,559.5,-7816.411683,0.2393,0.5346
349,360,793.6507937,0.5184,1.591,399,410,-2777.777778,0.8851,1.6033,449,460,-5555.555556,159.5416,377.4549,549,560,-7777.777778,0.2408,0.533
349.5,360.5,832.1775312,0.314,1.3195,399.5,410.5,-2739.25104,0.6528,1.1808,449.5,460.5,-5517.028818,139.8635,331.0941,549.5,560.5,-7739.25104,0.2434,0.5303
350,361,870.5975465,0.3694,1.2549,400,411,-2700.831025,0.5771,0.8873,450,461,-5478.608803,121.4454,287.9897,550,561,-7700.831025,0.2441,0.5302
350.5,361.5,908.9112824,0.3404,1.418,400.5,411.5,-2662.517289,0.6368,1.0084,450.5,461.5,-5440.295067,104.5413,248.8902,550.5,561.5,-7662.517289,0.2459,0.5292
351,362,947.1191792,0.3031,1.4548,401,412,-2624.309392,0.6649,1.1899,451,462,-5402.08717,89.2583,213.6101,551,562,-7624.309392,0.2475,0.5269
351.5,362.5,985.2216749,0.333,1.4411,401.5,412.5,-2586.206897,0.6878,1.2705,451.5,462.5,-5363.984674,75.7124,182.5123,551.5,562.5,-7586.206897,0.2477,0.5247
352,363,1023.219205,0.3339,1.5199,402,413,-2548.209366,0.7351,1.3163,452,463,-5325.987144,63.0192,151.3481,552,563,-7548.209366,0.2473,0.5207
352.5,363.5,1061.112203,0.3706,1.5102,402.5,413.5,-2510.316369,0.6996,1.2576,452.5,463.5,-5288.094146,51.3324,124.2144,552.5,563.5,-7510.316369,0.2483,0.5185
353,364,1098.901099,0.3439,1.545,403,414,-2472.527473,0.7161,1.1998,453,464,-5250.30525,41.6915,100.4594,553,564,-7472.527473,0.2487,0.5156
353.5,364.5,1136.586322,0.3537,1.5448,403.5,414.5,-2434.84225,0.6919,1.1872,453.5,464.5,-5212.620027,33.7479,81.051,553.5,564.5,-7434.84225,0.2497,0.5129
354,365,1174.168297,0.3462,1.5256,404,415,-2397.260274,0.6395,1.1407,454,465,-5175.038052,27.2641,65.6529,554,565,-7397.260274,0.2491,0.5139
354.5,365.5,1211.64745,0.3283,1.4557,404.5,415.5,-2359.781122,0.5154,1.0857,454.5,465.5,-5137.5589,22.2346,53.2442,554.5,565.5,-7359.781122,0.2472,0.5086
355,366,1249.0242,0.3032,1.3906,405,416,-2322.404372,0.3928,1.0699,455,466,-5100.182149,16.9889,40.4818,555,566,-7322.404372,0.2464,0.5068
355.5,366.5,1286.298967,0.2844,1.4267,405.5,416.5,-2285.129604,0.2915,1.0865,455.5,466.5,-5062.907382,12.4718,29.668,555.5,566.5,-7285.129604,0.2462,0.5057
356,367,1323.472168,0.3019,1.3976,406,417,-2247.956403,0.2477,1.1362,456,467,-5025.734181,9.1658,21.7931,556,567,-7247.956403,0.2469,0.5042
356.5,367.5,1360.544218,0.3015,1.3797,406.5,417.5,-2210.884354,0.2769,1.1286,456.5,467.5,-4988.662132,6.9072,16.2618,556.5,567.5,-7210.884354,0.2452,0.5007
357,368,1397.515528,0.3011,1.3766,407,418,-2173.913043,0.3347,1.1298,457,468,-4951.690821,5.4411,12.6196,557,568,-7173.913043,0.2424,0.4956
357.5,368.5,1434.386509,0.3024,1.3707,407.5,418.5,-2137.042062,0.3294,1.0953,457.5,468.5,-4914.81984,4.2954,9.8002,557.5,568.5,-7137.042062,0.2411,0.4943
358,369,1471.157569,0.3024,1.4025,408,419,-2100.271003,0.3754,1.0751,458,469,-4878.04878,2.9864,6.6318,558,569,-7100.271003,0.2406,0.4943
358.5,369.5,1507.829113,0.3031,1.3433,408.5,419.5,-2063.599459,0.3505,1.0913,458.5,469.5,-4841.377237,2.1296,4.5986,558.5,569.5,-7063.599459,0.2398,0.4935
359,370,1544.401544,0.3029,1.315,409,420,-2027.027027,0.3389,1.089,459,470,-4804.804805,1.5184,3.0968,559,570,-7027.027027,0.2383,0.4929
359.5,370.5,1580.875265,0.303,1.261,409.5,420.5,-1990.553306,0.3042,1.0565,459.5,470.5,-4768.331084,1.0974,2.1853,559.5,570.5,-6990.553306,0.2389,0.4898
360,371,1617.250674,0.3036,1.2449,410,421,-1954.177898,0.341,1.074,460,471,-4731.955675,0.9688,1.823,560,571,-6954.177898,0.2385,0.4877
360.5,371.5,1653.528168,0.3038,1.2649,410.5,421.5,-1917.900404,0.3513,1.0771,460.5,471.5,-4695.678182,0.9017,1.666,560.5,571.5,-6917.900404,0.2359,0.4838
361,372,1689.708141,0.3038,1.2054,411,422,-1881.72043,0.3866,1.1053,461,472,-4659.498208,0.9274,1.7721,561,572,-6881.72043,0.2334,0.4798
361.5,372.5,1725.790988,0.304,1.1855,411.5,422.5,-1845.637584,0.4242,1.056,461.5,472.5,-4623.415362,0.8825,1.7157,561.5,572.5,-6845.637584,0.2308,0.4776
362,373,1761.777097,0.3043,1.1713,412,423,-1809.651475,0.3923,1.0428,462,473,-4587.429252,0.8546,1.6735,562,573,-6809.651475,0.23,0.4742
362.5,373.5,1797.666858,0.3068,1.1636,412.5,423.5,-1773.761714,0.356,1.0625,462.5,473.5,-4551.539491,0.8822,1.7198,562.5,573.5,-6773.761714,0.227,0.471
363,374,1833.460657,0.3126,1.1591,413,424,-1737.967914,0.2927,1.0645,463,474,-4515.745692,0.9175,1.8499,563,574,-6737.967914,0.2204,0.4691
363.5,374.5,1869.158879,0.2984,1.0892,413.5,424.5,-1702.269693,0.2058,1.0647,463.5,474.5,-4480.047471,0.947,1.9445,563.5,574.5,-6702.269693,0.2131,0.4671
364,375,1904.761905,0.2871,1.1093,414,425,-1666.666667,0.1742,1.1179,464,475,-4444.444444,0.9773,2.0045,564,575,-6666.666667,0.2051,0.466
364.5,375.5,1940.270116,0.279,1.1782,414.5,425.5,-1631.158455,0.1399,1.061,464.5,475.5,-4408.936233,0.9894,2.0183,564.5,575.5,-6631.158455,0.1966,0.4632
365,376,1975.683891,0.275,1.2713,415,426,-1595.744681,0.1857,1.0308,465,476,-4373.522459,0.981,1.9956,565,576,-6595.744681,0.1871,0.4639
365.5,376.5,2011.003605,0.2742,1.3261,415.5,426.5,-1560.424967,0.1894,0.9578,465.5,476.5,-4338.202745,0.9843,1.9708,565.5,576.5,-6560.424967,0.1793,0.463
366,377,2046.229632,0.277,1.2986,416,427,-1525.198939,0.1811,0.8766,466,477,-4302.976717,0.9787,1.9318,566,577,-6525.198939,0.1735,0.4627
366.5,377.5,2081.362346,0.2831,1.2601,416.5,427.5,-1490.066225,0.1881,0.8202,466.5,477.5,-4267.844003,0.9697,1.9038,566.5,577.5,-6490.066225,0.1676,0.4605
367,378,2116.402116,0.3051,1.1977,417,428,-1455.026455,0.1774,0.7569,467,478,-4232.804233,0.9543,1.886,567,578,-6455.026455,0.1626,0.4598
367.5,378.5,2151.349311,0.3013,1.1164,417.5,428.5,-1420.07926,0.2,0.7515,467.5,478.5,-4197.857038,0.9428,1.8696,567.5,578.5,-6420.07926,0.1582,0.464
368,379,2186.204297,0.3024,1.0067,418,429,-1385.224274,0.1977,0.7567,468,479,-4163.002052,0.9341,1.8522,568,579,-6385.224274,0.1559,0.4655
368.5,379.5,2220.967438,0.2854,0.9381,418.5,429.5,-1350.461133,0.2233,0.7804,468.5,479.5,-4128.238911,0.9248,1.8219,568.5,579.5,-6350.461133,0.1544,0.4675
369,380,2255.639098,0.2681,0.9837,419,430,-1315.789474,0.2262,0.8688,469,480,-4093.567251,0.9159,1.7956,569,580,-6315.789474,0.1533,0.469
369.5,380.5,2290.219636,0.2568,1.073,419.5,430.5,-1281.208936,0.2308,0.8193,469.5,480.5,-4058.986713,0.901,1.7955,569.5,580.5,-6281.208936,0.1525,0.4709
370,381,2324.709411,0.2467,1.1132,420,431,-1246.71916,0.2053,0.8054,470,481,-4024.496938,0.894,1.7786,570,581,-6246.71916,0.1507,0.471
370.5,381.5,2359.108781,0.2367,1.1431,420.5,431.5,-1212.31979,0.1832,0.8175,470.5,481.5,-3990.097568,0.887,1.761,570.5,581.5,-6212.31979,0.1482,0.4681
371,382,2393.4181,0.2744,1.1642,421,432,-1178.010471,0.1561,0.8668,471,482,-3955.788249,0.8769,1.7513,571,582,-6178.010471,0.1492,0.4674
371.5,382.5,2427.637722,0.3118,1.134,421.5,432.5,-1143.79085,0.1309,0.8733,471.5,482.5,-3921.568627,0.8667,1.7407,571.5,582.5,-6143.79085,0.1498,0.4686
372,383,2461.767997,0.3486,1.2018,422,433,-1109.660574,0.117,0.8509,472,483,-3887.438352,0.8671,1.7309,572,583,-6109.660574,0.1502,0.4698
372.5,383.5,2495.809275,0.3639,1.1454,422.5,433.5,-1075.619296,0.1071,0.8979,472.5,483.5,-3853.397074,0.8689,1.7283,572.5,583.5,-6075.619296,0.1484,0.4699
373,384,2529.761905,0.3645,1.1656,423,434,-1041.666667,0.0733,0.9468,473,484,-3819.444444,0.8557,1.732,573,584,-6041.666667,0.1478,0.4713
373.5,384.5,2563.626231,0.3544,1.238,423.5,434.5,-1007.802341,0.0585,0.9392,473.5,484.5,-3785.580118,0.8533,1.734,573.5,584.5,-6007.802341,0.1473,0.4711
374,385,2597.402597,0.3291,1.3379,424,435,-974.025974,0.0893,0.904,474,485,-3751.803752,0.8531,1.7282,574,585,-5974.025974,0.1475,0.4716
374.5,385.5,2631.091347,0.3063,1.3777,424.5,435.5,-940.3372244,0.1771,0.871,474.5,485.5,-3718.115002,0.8458,1.712,574.5,585.5,-5940.337224,0.1466,0.4738
375,386,2664.69282,0.2767,1.3712,425,436,-906.7357513,0.2244,0.8283,475,486,-3684.513529,0.8497,1.6798,575,586,-5906.735751,0.1458,0.4753
375.5,386.5,2698.207355,0.2461,1.3895,425.5,436.5,-873.221216,0.2628,0.8349,475.5,486.5,-3650.998994,0.8508,1.6599,575.5,586.5,-5873.221216,0.1477,0.4763
376,387,2731.63529,0.2485,1.3813,426,437,-839.7932817,0.2438,0.8698,476,487,-3617.571059,0.841,1.6425,576,587,-5839.793282,0.1512,0.4742
376.5,387.5,2764.976959,0.3191,1.3887,426.5,437.5,-806.4516129,0.2119,0.8492,476.5,487.5,-3584.229391,0.8344,1.6322,576.5,587.5,-5806.451613,0.1534,0.4722
377,388,2798.232695,0.3293,1.4801,427,438,-773.1958763,0.2412,0.8574,477,488,-3550.973654,0.828,1.6198,577,588,-5773.195876,0.1545,0.4738
377.5,388.5,2831.402831,0.4344,1.4471,427.5,438.5,-740.02574,0.255,0.8093,477.5,488.5,-3517.803518,0.8214,1.5986,577.5,588.5,-5740.02574,0.1556,0.476
378,389,2864.487697,0.5535,1.485,428,439,-706.940874,0.2334,0.7929,478,489,-3484.718652,0.8157,1.5702,578,589,-5706.940874,0.1598,0.4763
378.5,389.5,2897.487621,0.7238,1.4832,428.5,439.5,-673.9409499,0.2212,0.8109,478.5,489.5,-3451.718728,0.7986,1.5523,578.5,589.5,-5673.94095,0.1645,0.4783
379,390,2930.40293,0.9064,1.5263,429,440,-641.025641,0.2528,0.7804,479,490,-3418.803419,0.7806,1.5371,579,590,-5641.025641,0.1688,0.4815
379.5,390.5,2963.233949,1.0756,1.5514,429.5,440.5,-608.1946223,0.2908,0.8109,479.5,490.5,-3385.9724,0.7617,1.5396,579.5,590.5,-5608.194622,0.172,0.4809
380,391,2995.981001,1.2352,1.6155,430,441,-575.4475703,0.2796,0.782,480,491,-3353.225348,0.7491,1.5236,580,591,-5575.44757,0.1761,0.479
380.5,391.5,3028.644408,1.3277,1.6671,430.5,441.5,-542.7841635,0.2392,0.7936,480.5,491.5,-3320.561941,0.738,1.5126,580.5,591.5,-5542.784163,0.1807,0.4774
381,392,3061.22449,1.3894,1.8038,431,442,-510.2040816,0.1448,0.8232,481,492,-3287.981859,0.7262,1.5059,581,592,-5510.204082,0.1878,0.4792
381.5,392.5,3093.721565,1.5003,1.9686,431.5,442.5,-477.7070064,0.1239,0.8269,481.5,492.5,-3255.484784,0.7161,1.4881,581.5,592.5,-5477.707006,0.1922,0.4792
382,393,3126.135951,1.5335,2.2338,432,443,-445.2926209,0.165,0.8054,482,493,-3223.070399,0.7099,1.4737,582,593,-5445.292621,0.1985,0.4803
382.5,393.5,3158.467962,1.5839,2.4237,432.5,443.5,-412.9606099,0.2016,0.7106,482.5,493.5,-3190.738388,0.7008,1.4597,582.5,593.5,-5412.96061,0.2041,0.4802
383,394,3190.717912,1.7041,2.6608,433,444,-380.7106599,0.212,0.7258,483,494,-3158.488438,0.6841,1.4492,583,594,-5380.71066,0.2113,0.4815
383.5,394.5,3222.886113,1.8352,2.8303,433.5,444.5,-348.5424588,0.2138,0.7972,483.5,494.5,-3126.320237,0.6826,1.4372,583.5,594.5,-5348.542459,0.2183,0.4837
384,395,3254.972875,1.9373,2.9536,434,445,-316.4556962,0.2039,0.8198,484,495,-3094.233474,0.6794,1.4298,584,595,-5316.455696,0.2268,0.4874
384.5,395.5,3286.978508,1.9792,2.9034,434.5,445.5,-284.4500632,0.2154,0.8585,484.5,495.5,-3062.227841,0.6695,1.4086,584.5,595.5,-5284.450063,0.2368,0.4941
385,396,3318.903319,2.0267,2.8827,435,446,-252.5252525,0.2058,0.8231,485,496,-3030.30303,0.669,1.3975,585,596,-5252.525253,0.2452,0.4988
385.5,396.5,3350.747613,2.0532,2.8135,435.5,446.5,-220.6809584,0.1794,0.8366,485.5,496.5,-2998.458736,0.6615,1.3895,585.5,596.5,-5220.680958,0.2532,0.4995
386,397,3382.511695,2.0339,2.7879,436,447,-188.9168766,0.1238,0.8136,486,497,-2966.694654,0.6537,1.3824,586,597,-5188.916877,0.2606,0.4996
386.5,397.5,3414.195867,2.0043,2.6676,436.5,447.5,-157.2327044,0.1328,0.7943,486.5,497.5,-2935.010482,0.6525,1.3693,586.5,597.5,-5157.232704,0.2668,0.5028
387,398,3445.800431,1.9335,2.7208,437,448,-125.6281407,0.1361,0.8152,487,498,-2903.405918,0.646,1.346,587,598,-5125.628141,0.2735,0.5075
387.5,398.5,3477.325686,1.8233,2.5716,437.5,448.5,-94.10288582,0.1636,0.862,487.5,498.5,-2871.880664,0.6381,1.3376,587.5,598.5,-5094.102886,0.2788,0.5121
388,399,3508.77193,1.7776,2.6005,438,449,-62.6566416,0.1905,0.9317,488,499,-2840.434419,0.6305,1.3263,588,599,-5062.656642,0.2863,0.5148
388.5,399.5,3540.13946,1.6587,2.5552,438.5,449.5,-31.28911139,0.2078,0.9846,488.5,499.5,-2809.066889,0.6214,1.3205,588.5,599.5,-5031.289111,0.2943,0.5172
389,400,3571.428571,1.5398,2.4583,439,450,0,0.1995,1.0109,489,500,-2777.777778,0.6184,1.3057,589,600,-5000,0.2976,0.5175
389.5,400.5,3602.639558,1.4811,2.2205,439.5,450.5,31.21098627,0.1633,0.9886,489.5,500.5,-2746.566792,0.622,1.3,589.5,600.5,-4968.789014,0.298,0.5139
390,401,3633.772711,1.4899,2.1365,440,451,62.34413965,0.2176,0.8785,490,501,-2715.433638,0.627,1.2823,590,601,-4937.65586,0.3,0.511
390.5,401.5,3664.828322,1.5401,2.0226,440.5,451.5,93.39975093,0.2589,0.8859,490.5,501.5,-2684.378027,0.6271,1.2665,590.5,601.5,-4906.600249,0.2988,0.5096
391,402,3695.806681,1.5126,1.9022,441,452,124.3781095,0.234,0.8769,491,502,-2653.399668,0.6213,1.2537,591,602,-4875.621891,0.2969,0.506
391.5,402.5,3726.708075,1.5216,1.7572,441.5,452.5,155.2795031,0.2654,0.8515,491.5,502.5,-2622.498275,0.6169,1.2353,591.5,602.5,-4844.720497,0.2903,0.4966
392,403,3757.53279,1.4903,1.7008,442,453,186.1042184,0.2821,0.8845,492,503,-2591.673559,0.6173,1.2324,592,603,-4813.895782,0.2843,0.4889
392.5,403.5,3788.281112,1.4571,1.5244,442.5,453.5,216.8525403,0.3244,0.9608,492.5,503.5,-2560.925238,0.6132,1.2298,592.5,603.5,-4783.14746,0.2755,0.4828
393,404,3818.953324,1.2856,1.5637,443,454,247.5247525,0.3913,1.0134,493,504,-2530.253025,0.6108,1.2295,593,604,-4752.475248,0.2658,0.4781
393.5,404.5,3849.549709,1.1286,1.5531,443.5,454.5,278.1211372,0.445,1.062,493.5,504.5,-2499.656641,0.611,1.2329,593.5,604.5,-4721.878863,0.2555,0.4737
394,405,3880.070547,0.9545,1.5323,444,455,308.6419753,0.4874,1.1115,494,505,-2469.135802,0.6066,1.2377,594,605,-4691.358025,0.2467,0.4702
394.5,405.5,3910.516118,0.7798,1.4724,444.5,455.5,339.0875462,0.5577,1.1673,494.5,505.5,-2438.690232,0.602,1.219,594.5,605.5,-4660.912454,0.2371,0.47
395,406,3940.8867,0.6535,1.5485,445,456,369.4581281,0.6805,1.1691,495,506,-2408.31965,0.6003,1.2134,595,606,-4630.541872,0.2247,0.4668
395.5,406.5,3971.182569,0.5219,1.5851,445.5,456.5,399.7539975,0.7621,1.2325,495.5,506.5,-2378.02378,0.6021,1.2088,595.5,606.5,-4600.246002,0.214,0.4651
396,407,4001.404001,0.4127,1.5259,446,457,429.97543,0.831,1.2635,496,507,-2347.802348,0.6057,1.2165,596,607,-4570.02457,0.204,0.4678
396.5,407.5,4031.551271,0.4463,1.4768,446.5,457.5,460.1226994,0.9382,1.2122,496.5,507.5,-2317.655078,0.6057,1.2193,596.5,607.5,-4539.877301,0.1937,0.4716
397,408,4061.62465,0.4705,1.4206,447,458,490.1960784,0.9811,1.1778,497,508,-2287.581699,0.6041,1.2152,597,608,-4509.803922,0.1866,0.4752
397.5,408.5,4091.62441,0.5015,1.4106,447.5,458.5,520.1958384,1.0234,1.1733,497.5,508.5,-2257.581939,0.608,1.2254,597.5,608.5,-4479.804162,0.1784,0.4785
398,409,4121.550821,0.4712,1.3862,448,459,550.1222494,1.0767,1.1632,498,509,-2227.655528,0.6064,1.2234,598,609,-4449.877751,0.1723,0.4805
398.5,409.5,4151.404151,0.5362,1.312,448.5,459.5,579.97558,1.1012,1.1633,498.5,509.5,-2197.802198,0.6084,1.2213,598.5,609.5,-4420.02442,0.1647,0.4829
399,410,4181.184669,0.4996,1.3024,449,460,609.7560976,1.1186,1.1814,499,510,-2168.02168,0.6087,1.2218,599,610,-4390.243902,0.1573,0.4858
399.5,410.5,4210.89264,0.4312,1.3381,449.5,460.5,639.4640682,1.1337,1.2024,499.5,510.5,-2138.31371,0.61,1.2292,599.5,610.5,-4360.535932,0.1533,0.489
400,411,4240.528328,0.4039,1.4481,450,461,669.0997567,1.087,1.2181,500,511,-2108.678021,0.605,1.2258,600,611,-4330.900243,0.1497,0.489
400.5,411.5,4270.091998,0.3339,1.4788,450.5,461.5,698.6634265,1.0994,1.2479,500.5,511.5,-2079.114351,0.6004,1.2228,600.5,611.5,-4301.336574,0.144,0.4904
401,412,4299.583911,0.3067,1.4487,451,462,728.1553398,1.1358,1.2764,501,512,-2049.622438,0.5952,1.211,601,612,-4271.84466,0.1395,0.4849
401.5,412.5,4329.004329,0.3325,1.4628,451.5,462.5,757.5757576,1.1192,1.258,501.5,512.5,-2020.20202,0.5991,1.2088,601.5,612.5,-4242.424242,0.1342,0.4737
402,413,4358.353511,0.3287,1.4718,452,463,786.9249395,1.1087,1.2516,502,513,-1990.852838,0.6045,1.2174,602,613,-4213.075061,0.1293,0.4649
402.5,413.5,4387.631715,0.3137,1.5087,452.5,463.5,816.2031439,1.0934,1.2654,502.5,513.5,-1961.574634,0.5991,1.2072,602.5,613.5,-4183.796856,0.1235,0.4558
403,414,4416.839199,0.306,1.4609,453,464,845.410628,1.092,1.2833,503,514,-1932.36715,0.6028,1.1922,603,614,-4154.589372,0.1188,0.4437
403.5,414.5,4445.976219,0.3305,1.4657,453.5,464.5,874.5476478,1.0136,1.2734,503.5,514.5,-1903.23013,0.6074,1.1828,603.5,614.5,-4125.452352,0.1172,0.4299
404,415,4475.043029,0.3228,1.4799,454,465,903.6144578,0.9489,1.2389,504,515,-1874.16332,0.6119,1.1806,604,615,-4096.385542,0.1148,0.4176
404.5,415.5,4504.039883,0.3209,1.513,454.5,465.5,932.6113117,0.8788,1.2374,504.5,515.5,-1845.166466,0.613,1.167,604.5,615.5,-4067.388688,0.1141,0.406
405,416,4532.967033,0.3154,1.4161,455,466,961.5384615,0.8619,1.2517,505,516,-1816.239316,0.6218,1.1672,605,616,-4038.461538,0.1144,0.3937
405.5,416.5,4561.82473,0.3013,1.3791,455.5,466.5,990.3961585,0.8501,1.2119,505.5,516.5,-1787.381619,0.633,1.172,605.5,616.5,-4009.603842,0.1238,0.3832
406,417,4590.613224,0.3019,1.3678,456,467,1019.184652,0.8654,1.1536,506,517,-1758.593125,0.6487,1.1881,606,617,-3980.815348,0.1303,0.3712
406.5,417.5,4619.332763,0.3343,1.3218,456.5,467.5,1047.904192,0.8134,1.0709,506.5,517.5,-1729.873586,0.6594,1.1961,606.5,617.5,-3952.095808,0.1356,0.3598
407,418,4647.983595,0.357,1.3447,457,468,1076.555024,0.7928,0.9829,507,518,-1701.222754,0.6758,1.2106,607,618,-3923.444976,0.1405,0.3483
407.5,418.5,4676.565967,0.3707,1.3761,457.5,468.5,1105.137395,0.8106,0.9639,507.5,518.5,-1672.640382,0.6884,1.2263,607.5,618.5,-3894.862605,0.1482,0.3385
408,419,4705.080123,0.3772,1.4698,458,469,1133.651551,0.7591,0.9243,508,519,-1644.126226,0.7063,1.2362,608,619,-3866.348449,0.1564,0.3305
408.5,419.5,4733.526307,0.377,1.577,458.5,469.5,1162.097735,0.6134,0.8511,508.5,519.5,-1615.680042,0.7325,1.2586,608.5,619.5,-3837.902265,0.1673,0.3231
409,420,4761.904762,0.3699,1.5864,459,470,1190.47619,0.4914,0.8009,509,520,-1587.301587,0.7567,1.2905,609,620,-3809.52381,0.1786,0.3159
409.5,420.5,4790.21573,0.3675,1.6079,459.5,470.5,1218.787158,0.3773,0.8109,509.5,520.5,-1558.99062,0.7784,1.3141,609.5,620.5,-3781.212842,0.2016,0.3034
410,421,4818.45945,0.3283,1.4983,460,471,1247.030879,0.2878,0.8668,510,521,-1530.746899,0.7997,1.3253,610,621,-3752.969121,0.216,0.286
410.5,421.5,4846.636163,0.2897,1.4785,460.5,471.5,1275.207592,0.1961,0.8054,510.5,521.5,-1502.570186,0.8247,1.3448,,11,-3724.792408,,
411,422,4874.746107,0.2749,1.4836,461,472,1303.317536,0.1639,0.747,511,522,-1474.460242,0.8471,1.3714,,11,-3696.682464,,
411.5,422.5,4902.789518,0.2826,1.4448,461.5,472.5,1331.360947,0.1203,0.712,511.5,522.5,-1446.416831,0.8686,1.3949,,11,-3668.639053,,
412,423,4930.766633,0.2811,1.4328,462,473,1359.338061,0.1352,0.6972,512,523,-1418.439716,0.8874,1.4066,,11,-3640.661939,,
412.5,423.5,4958.677686,0.2821,1.3946,462.5,473.5,1387.249115,0.2127,0.6908,512.5,523.5,-1390.528663,0.9051,1.4145,,11,-3612.750885,,
413,424,4986.522911,0.2867,1.4455,463,474,1415.09434,0.2351,0.5835,513,524,-1362.683438,0.9229,1.4284,,11,-3584.90566,,
413.5,424.5,5014.302541,0.296,1.4227,463.5,474.5,1442.873969,0.2467,0.5364,513.5,524.5,-1334.903808,0.9367,1.4443,,11,-3557.126031,,
414,425,5042.016807,0.31,1.3636,464,475,1470.588235,0.257,0.503,514,525,-1307.189542,0.9455,1.465,,11,-3529.411765,,
414.5,425.5,5069.665939,0.326,1.2894,464.5,475.5,1498.237368,0.2786,0.5081,514.5,525.5,-1279.54041,0.9482,1.4696,,11,-3501.762632,,
415,426,5097.250168,0.3148,1.1932,465,476,1525.821596,0.2497,0.5715,515,526,-1251.956182,0.9631,1.4794,,11,-3474.178404,,
415.5,426.5,5124.76972,0.31,1.152,465.5,476.5,1553.341149,0.2148,0.5389,515.5,526.5,-1224.436629,0.9763,1.4903,,11,-3446.658851,,
416,427,5152.224824,0.3065,1.1469,466,477,1580.796253,0.1971,0.5786,516,527,-1196.981525,0.9954,1.5043,,11,-3419.203747,,
416.5,427.5,5179.615706,0.3297,1.1443,466.5,477.5,1608.187135,0.1802,0.5711,516.5,527.5,-1169.590643,1.0108,1.5139,,11,-3391.812865,,
417,428,5206.94259,0.3469,1.2028,467,478,1635.514019,0.1796,0.5633,517,528,-1142.263759,1.0181,1.5232,,11,-3364.485981,,
417.5,428.5,5234.205701,0.3572,1.1989,467.5,478.5,1662.77713,0.1783,0.5083,517.5,528.5,-1115.000648,1.0247,1.5274,,11,-3337.22287,,
418,429,5261.405261,0.362,1.2496,468,479,1689.97669,0.1759,0.4765,518,529,-1087.801088,1.0405,1.5289,,11,-3310.02331,,
418.5,429.5,5288.541493,0.3614,1.3301,468.5,479.5,1717.112922,0.1655,0.5605,518.5,529.5,-1060.664856,1.0555,1.5467,,11,-3282.887078,,
419,430,5315.614618,0.3558,1.4078,469,480,1744.186047,0.1654,0.561,519,530,-1033.591731,1.0636,1.5569,,11,-3255.813953,,
419.5,430.5,5342.624855,0.3584,1.4535,469.5,480.5,1771.196283,0.1893,0.5667,519.5,530.5,-1006.581494,1.0734,1.5629,,11,-3228.803717,,
420,431,5369.572423,0.3277,1.4298,470,481,1798.143852,0.1917,0.5316,520,531,-979.6339263,1.0801,1.5588,,11,-3201.856148,,
420.5,431.5,5396.45754,0.2982,1.419,470.5,481.5,1825.028969,0.2,0.5349,520.5,531.5,-952.7488091,1.0813,1.56,,11,-3174.971031,,
421,432,5423.280423,0.282,1.3656,471,482,1851.851852,0.2144,0.5256,521,532,-925.9259259,1.0849,1.5573,,11,-3148.148148,,
421.5,432.5,5450.041288,0.2778,1.3283,471.5,482.5,1878.612717,0.2221,0.4096,521.5,532.5,-899.165061,1.0891,1.5457,,11,-3121.387283,,
422,433,5476.74035,0.2817,1.3567,472,483,1905.311778,0.2274,0.3139,522,533,-872.4659995,1.0897,1.5452,,11,-3094.688222,,
422.5,433.5,5503.377822,0.2663,1.3078,472.5,483.5,1931.94925,0.2049,0.2306,522.5,533.5,-845.8285275,1.0721,1.5356,,11,-3068.05075,,
423,434,5529.953917,0.2289,1.2745,473,484,1958.525346,0.1923,0.225,523,534,-819.2524322,1.0566,1.5303,,11,-3041.474654,,
423.5,434.5,5556.468848,0.2483,1.2929,473.5,484.5,1985.040276,0.1626,0.2597,523.5,534.5,-792.7375016,1.0546,1.5271,,11,-3014.959724,,
424,435,5582.922824,0.2842,1.3421,474,485,2011.494253,0.144,0.2272,524,535,-766.2835249,1.0444,1.5151,,11,-2988.505747,,
424.5,435.5,5609.316057,0.3034,1.3536,474.5,485.5,2037.887486,0.1295,0.1426,524.5,535.5,-739.8902921,1.0249,1.5023,,11,-2962.112514,,
425,436,5635.648755,0.2972,1.3792,475,486,2064.220183,0.1207,0.1319,525,536,-713.5575943,1.0182,1.4917,,11,-2935.779817,,
425.5,436.5,5661.921126,0.31,1.3819,475.5,486.5,2090.492554,0.1176,0.2083,525.5,536.5,-687.2852234,0.9998,1.4742,,11,-2909.507446,,
426,437,5688.133377,0.3265,1.3095,476,487,2116.704805,0.1,0.2886,526,537,-661.0729723,0.9806,1.4658,,11,-2883.295195,,
426.5,437.5,5714.285714,0.3224,1.2354,476.5,487.5,2142.857143,0.0845,0.3413,526.5,537.5,-634.9206349,0.9578,1.4407,,11,-2857.142857,,
427,438,5740.378343,0.3212,1.2445,477,488,2168.949772,0.0733,0.3354,527,538,-608.8280061,0.9248,1.4107,,11,-2831.050228,,
427.5,438.5,5766.411468,0.2915,1.1729,477.5,488.5,2194.982896,0.0641,0.3651,527.5,538.5,-582.7948815,0.9078,1.3984,,11,-2805.017104,,
428,439,5792.385291,0.2626,1.1301,478,489,2220.95672,0.0719,0.4449,528,539,-556.821058,0.8868,1.3733,,11,-2779.04328,,
428.5,439.5,5818.300016,0.2903,1.0668,478.5,489.5,2246.871445,0.063,0.4919,528.5,539.5,-530.906333,0.8663,1.3624,,11,-2753.128555,,
429,440,5844.155844,0.3039,1.1055,479,490,2272.727273,0.0809,0.5149,529,540,-505.0505051,0.8417,1.3342,,11,-2727.272727,,
429.5,440.5,5869.952976,0.2965,1.139,479.5,490.5,2298.524404,0.0915,0.4884,529.5,540.5,-479.2533737,0.8322,1.3073,,11,-2701.475596,,
430,441,5895.69161,0.3131,1.322,480,491,2324.263039,0.1072,0.4793,530,541,-453.5147392,0.8065,1.2698,,11,-2675.736961,,
430.5,441.5,5921.371946,0.3098,1.4184,480.5,491.5,2349.943375,0.1156,0.4383,530.5,541.5,-427.8344029,0.7778,1.2422,,11,-2650.056625,,
431,442,5946.994182,0.3124,1.3691,481,492,2375.565611,0.1084,0.4222,531,542,-402.2121669,0.7607,1.2152,,11,-2624.434389,,
431.5,442.5,5972.558515,0.3034,1.3377,481.5,492.5,2401.129944,0.1085,0.3327,531.5,542.5,-376.6478343,0.7392,1.1883,,11,-2598.870056,,
432,443,5998.06514,0.2947,1.28,482,493,2426.636569,0.1136,0.2294,532,543,-351.1412089,0.7077,1.1605,,11,-2573.363431,,
432.5,443.5,6023.514254,0.2923,1.1292,482.5,493.5,2452.085682,0.114,0.1721,532.5,543.5,-325.6920957,0.6809,1.1328,,11,-2547.914318,,
433,444,6048.906049,0.2918,1.111,483,494,2477.477477,0.097,0.1488,533,544,-300.3003003,0.6651,1.1224,,11,-2522.522523,,
433.5,444.5,6074.24072,0.2967,0.9933,483.5,494.5,2502.812148,0.1044,0.1373,533.5,544.5,-274.9656293,0.6575,1.105,,11,-2497.187852,,
434,445,6099.518459,0.3052,0.979,484,495,2528.089888,0.1276,0.1861,534,545,-249.6878901,0.6375,1.0928,,11,-2471.910112,,
434.5,445.5,6124.739458,0.3163,1.0287,484.5,495.5,2553.310887,0.1425,0.2307,534.5,545.5,-224.4668911,0.6131,1.085,,11,-2446.689113,,
435,446,6149.903908,0.3337,1.1347,485,496,2578.475336,0.1388,0.243,535,546,-199.3024415,0.592,1.0746,,11,-2421.524664,,
435.5,446.5,6175.011998,0.331,1.1848,485.5,496.5,2603.583427,0.141,0.2774,535.5,546.5,-174.1943511,0.5605,1.0595,,11,-2396.416573,,
436,447,6200.063918,0.3234,1.1566,486,497,2628.635347,0.1539,0.3018,536,547,-149.142431,0.5347,1.0507,,11,-2371.364653,,
436.5,447.5,6225.059856,0.307,1.1352,486.5,497.5,2653.631285,0.1624,0.2795,536.5,547.5,-124.1464929,0.5166,1.025,,11,-2346.368715,,
437,448,6250,0.2596,1.1544,487,498,2678.571429,0.1585,0.3112,537,548,-99.20634921,0.5094,1.0187,,11,-2321.428571,,
437.5,448.5,6274.884536,0.279,1.1621,487.5,498.5,2703.455964,0.1442,0.3213,537.5,548.5,-74.32181345,0.5063,1.0101,,11,-2296.544036,,
438,449,6299.713649,0.2974,1.1454,488,499,2728.285078,0.1331,0.3128,538,549,-49.49269983,0.4932,0.9871,,11,-2271.714922,,
438.5,449.5,6324.487526,0.3153,1.0911,488.5,499.5,2753.058954,0.1412,0.2993,538.5,549.5,-24.71882338,0.4879,0.9767,,11,-2246.941046,,
439,450,6349.206349,0.3313,1.1309,489,500,2777.777778,0.1765,0.305,539,550,0,0.4848,0.9652,,11,-2222.222222,,
439.5,450.5,6373.870303,0.3485,1.1796,489.5,500.5,2802.441731,0.1803,0.2977,539.5,550.5,24.66395363,0.4927,0.9479,,11,-2197.558269,,
440,451,6398.479569,0.3657,1.1677,490,501,2827.050998,0.1876,0.2961,540,551,49.27322,0.4771,0.9307,,11,-2172.949002,,
440.5,451.5,6423.03433,0.3747,1.1457,490.5,501.5,2851.605759,0.1986,0.2712,540.5,551.5,73.8279808,0.4688,0.912,,11,-2148.394241,,
441,452,6447.534766,0.3588,1.1753,491,502,2876.106195,0.2218,0.2428,541,552,98.32841691,0.4694,0.8931,,11,-2123.893805,,
441.5,452.5,6471.981058,0.3313,1.0402,491.5,502.5,2900.552486,0.2228,0.2189,541.5,552.5,122.7747084,0.4623,0.8678,,11,-2099.447514,,
442,453,6496.373384,0.2956,1.0854,492,503,2924.944812,0.2035,0.2647,542,553,147.1670346,0.4523,0.846,,11,-2075.055188,,
442.5,453.5,6520.711923,0.3237,1.0593,492.5,503.5,2949.283352,0.189,0.2782,542.5,553.5,171.5055739,0.4526,0.8409,,11,-2050.716648,,
443,454,6544.996853,0.3225,1.0064,493,504,2973.568282,0.1999,0.2566,543,554,195.7905042,0.4402,0.83,,11,-2026.431718,,
443.5,454.5,6569.228351,0.3188,1.0483,493.5,504.5,2997.79978,0.1815,0.2264,543.5,554.5,220.0220022,0.4342,0.8266,,11,-2002.20022,,
444,455,6593.406593,0.3168,1.0762,494,505,3021.978022,0.197,0.2137,544,555,244.2002442,0.4265,0.8317,,11,-1978.021978,,
444.5,455.5,6617.531755,0.317,1.1593,494.5,505.5,3046.103183,0.1857,0.2072,544.5,555.5,268.3254055,0.4168,0.8365,,11,-1953.896817,,
445,456,6641.60401,0.3203,1.2504,495,506,3070.175439,0.2069,0.2124,545,556,292.3976608,0.4048,0.8273,,11,-1929.824561,,
445.5,456.5,6665.623533,0.3264,1.225,495.5,506.5,3094.194962,0.2138,0.2043,545.5,556.5,316.4171839,0.3955,0.818,,11,-1905.805038,,
446,457,6689.590497,0.3112,1.1836,496,507,3118.161926,0.2226,0.2131,546,557,340.3841478,0.3928,0.8106,,11,-1881.838074,,
446.5,457.5,6713.505074,0.3,1.0309,496.5,507.5,3142.076503,0.228,0.245,546.5,557.5,364.298725,0.387,0.8022,,11,-1857.923497,,
447,458,6737.367436,0.2953,1.0111,497,508,3165.938865,0.2148,0.2781,547,558,388.1610869,0.3814,0.7946,,11,-1834.061135,,
447.5,458.5,6761.177754,0.2929,0.9096,497.5,508.5,3189.749182,0.2125,0.2782,547.5,558.5,411.9714043,0.382,0.7893,,11,-1810.250818,,
448,459,6784.936197,0.2952,0.9532,498,509,3213.507625,0.2077,0.2428,548,559,435.7298475,0.3756,0.7852,,11,-1786.492375,,
448.5,459.5,6808.642935,0.2965,0.9498,498.5,509.5,3237.214363,0.2007,0.2215,548.5,559.5,459.4365857,0.3727,0.7799,,11,-1762.785637,,
449,460,6832.298137,0.3019,1.0544,499,510,3260.869565,0.1928,0.1955,549,560,483.0917874,0.3687,0.7552,,11,-1739.130435,,
449.5,460.5,6855.90197,0.3212,1.1092,499.5,510.5,3284.473398,0.2101,0.1475,549.5,560.5,506.6956207,0.3293,0.6941,,11,-1715.526602,,
450,461,6879.454602,0.315,1.343,500,511,3308.02603,0.267,0.137,550,561,530.2482526,0.318,0.751,,11,-1691.97397,,