comp(1),comp_corrected(1),raman_shift(1),vidro(ex 350 5-5),plastico(ex 350 5-5),comp(2),comp_corrected(2),raman_shift(2),vidro(ex 400 5-5),plastico(ex 400 5-5),comp(3),comp_corrected(3),raman_shift(3),vidro(ex 450 10-10),plastico(ex 450 10-10),comp(4),comp_corrected(4),raman_shift(4),vidro(ex 500 10-10),plastico(ex 500 10-10)
339,350,0,0.3310367027,0.8039354719,389,400,0,0.4927821026,0.6235497714,439,450,0,0.733876024,2.362768422,489,500,0,95.0055,638.6647
339.5,350.5,40.75810067,0.3312374863,0.8046257558,389.5,400.5,31.21098627,0.4940009361,0.6237435284,439.5,450.5,24.66395363,0.734132102,2.369048293,489.5,500.5,19.98001998,95.6414,652.191
340,351,81.4000814,0.33143827,0.8053160396,390,401,62.34413965,0.4952197696,0.6239372853,440,451,49.27322,0.73438818,2.375328164,490,501,39.92015968,95.6439,661.3013
340.5,351.5,121.9264377,0.3316390537,0.8060063234,390.5,401.5,93.39975093,0.4964386031,0.6241310423,440.5,451.5,73.8279808,0.734644258,2.381608035,490.5,501.5,59.82053838,94.9309,665.5814
341,352,162.3376623,0.3318398374,0.8066966073,391,402,124.3781095,0.4976574365,0.6243247993,441,452,98.32841691,0.734900336,2.387887906,491,502,79.6812749,93.5399,664.9199
341.5,352.5,202.6342452,0.3320406211,0.8073868911,391.5,402.5,155.2795031,0.49887627,0.6245185563,441.5,452.5,122.7747084,0.735156414,2.394167777,491.5,502.5,99.50248756,91.5053,659.6066
342,353,242.8166734,0.3322414047,0.8080771749,392,403,186.1042184,0.5000951035,0.6247123132,442,453,147.1670346,0.735412492,2.400447648,492,503,119.2842942,88.8758,649.6213
342.5,353.5,282.8854314,0.3324421884,0.8087674587,392.5,403.5,216.8525403,0.501313937,0.6249060702,442.5,453.5,171.5055739,0.7356685701,2.406727519,492.5,503.5,139.0268123,85.7123,635.1823
343,354,322.8410008,0.3326429721,0.8094577426,393,404,247.5247525,0.5025327705,0.6250998272,443,454,195.7905042,0.7359246481,2.41300739,493,504,158.7301587,82.0256,616.681
343.5,354.5,362.6838606,0.3328437558,0.8101480264,393.5,404.5,278.1211372,0.503751604,0.6252935842,443.5,454.5,220.0220022,0.7361807261,2.419287261,493.5,504.5,178.39445,77.945,594.2302
344,355,402.4144869,0.3330445395,0.8108383102,394,405,308.6419753,0.5049704374,0.6254873411,444,455,244.2002442,0.7364368041,2.425567132,494,505,198.019802,73.509,568.2622
344.5,355.5,442.0333534,0.3332453231,0.8115285941,394.5,405.5,339.0875462,0.5061892709,0.6256810981,444.5,455.5,268.3254055,0.7366928821,2.431847003,494.5,505.5,217.6063304,68.8057,539.4419
345,356,481.540931,0.3334461068,0.8122188779,395,406,369.4581281,0.5074081044,0.6258748551,445,456,292.3976608,0.7369489601,2.438126874,495,506,237.1541502,63.9189,507.9537
345.5,356.5,520.9376878,0.3336468905,0.8129091617,395.5,406.5,399.7539975,0.5086269379,0.6260686121,445.5,456.5,316.4171839,0.7372050381,2.444406745,495.5,506.5,256.6633761,58.9406,474.4366
346,357,560.2240896,0.3338476742,0.8135994455,396,407,429.97543,0.5098457714,0.626262369,446,457,340.3841478,0.7374611161,2.450686616,496,507,276.1341223,53.9129,439.2784
346.5,357.5,599.4005994,0.3340484578,0.8142897294,396.5,407.5,460.1226994,0.5110646049,0.626456126,446.5,457.5,364.298725,0.7377171941,2.456966487,496.5,507.5,295.5665025,48.934,403.1889
347,358,638.4676776,0.3342492415,0.8149800132,397,408,490.1960784,0.5122834383,0.626649883,447,458,388.1610869,0.7379732721,2.463246358,497,508,314.9606299,44.0316,366.9912
347.5,358.5,677.425782,0.3344500252,0.815670297,397.5,408.5,520.1958384,0.5135022718,0.62684364,447.5,458.5,411.9714043,0.7382293501,2.469526229,497.5,508.5,334.3166175,39.274,331.0155
348,359,716.2753681,0.3346508089,0.8163605809,398,409,550.1222494,0.5147211053,0.6270373969,448,459,435.7298475,0.7384854281,2.4758061,498,509,353.6345776,34.7077,295.7157
348.5,359.5,755.0168885,0.3348515926,0.8170508647,398.5,409.5,579.97558,0.5159399388,0.6272311539,448.5,459.5,459.4365857,0.7387415062,2.482085971,498.5,509.5,372.9146222,30.357,261.6831
349,360,793.6507937,0.3350523762,0.8177411485,399,410,609.7560976,0.5171587723,0.6274249109,449,460,483.0917874,0.7389975842,2.488365842,499,510,392.1568627,26.2792,229.0294
349.5,360.5,832.1775312,0.3352531599,0.8184314323,399.5,410.5,639.4640682,0.5183776058,0.6276186679,449.5,460.5,506.6956207,0.7392536622,2.494645713,499.5,510.5,411.3614104,22.5304,198.4217
350,361,870.5975465,0.3354539436,0.8191217162,400,411,669.0997567,0.5195964392,0.6278124248,450,461,530.2482526,0.7395097402,2.500925584,500,511,430.5283757,73.35430867,517.7278151
350.5,361.5,908.9112824,0.3356547273,0.819812,400.5,411.5,698.6634265,0.5208152727,0.6280061818,450.5,461.5,553.7498495,0.7397658182,2.507205455,500.5,511.5,449.657869,74.27774456,524.3636091
351,362,947.1191792,0.335855511,0.8205022838,401,412,728.1553398,0.5220341062,0.6281999388,451,462,577.2005772,0.7400218962,2.513485326,501,512,468.75,75.20118046,530.9994031
351.5,362.5,985.2216749,0.3360562946,0.8211925677,401.5,412.5,757.5757576,0.5232529397,0.6283936958,451.5,462.5,600.6006006,0.7402779742,2.519765197,501.5,512.5,487.804878,76.12461635,537.6351971
352,363,1023.219205,0.3362570783,0.8218828515,402,413,786.9249395,0.5244717732,0.6285874527,452,463,623.950084,0.7405340522,2.526045068,502,513,506.8226121,77.04805224,544.2709911
352.5,363.5,1061.112203,0.336457862,0.8225731353,402.5,413.5,816.2031439,0.5256906067,0.6287812097,452.5,463.5,647.2491909,0.7407901302,2.532324938,502.5,513.5,525.8033106,77.97148814,550.9067851
353,364,1098.901099,0.3366586457,0.8232634191,403,414,845.410628,0.5269094401,0.6289749667,453,464,670.4980843,0.7410462082,2.538604809,503,514,544.7470817,78.89492403,557.5425791
353.5,364.5,1136.586322,0.3368594293,0.823953703,403.5,414.5,874.5476478,0.5281282736,0.6291687237,453.5,464.5,693.6969262,0.7413022862,2.54488468,503.5,514.5,563.654033,79.81835993,564.1783731
354,365,1174.168297,0.337060213,0.8246439868,404,415,903.6144578,0.5293471071,0.6293624806,454,465,716.8458781,0.7415583642,2.551164551,504,515,582.5242718,80.74179582,570.8141671
354.5,365.5,1211.64745,0.3372609967,0.8253342706,404.5,415.5,932.6113117,0.5305659406,0.6295562376,454.5,465.5,739.9451008,0.7418144422,2.557444422,504.5,515.5,601.3579049,81.66523172,577.4499611
355,366,1249.0242,0.3374617804,0.8260245545,405,416,961.5384615,0.5317847741,0.6297499946,455,466,762.9947544,0.7420705203,2.563724293,505,516,620.1550388,82.58866761,584.0857551
355.5,366.5,1286.298967,0.3376625641,0.8267148383,405.5,416.5,990.3961585,0.5330036076,0.6299437516,455.5,466.5,785.9949982,0.7423265983,2.570004164,505.5,516.5,638.9157793,83.5121035,590.7215491
356,367,1323.472168,0.3378633477,0.8274051221,406,417,1019.184652,0.534222441,0.6301375086,456,467,808.945991,0.7425826763,2.576284035,506,517,657.6402321,84.4355394,597.3573431
356.5,367.5,1360.544218,0.3380641314,0.8280954059,406.5,417.5,1047.904192,0.5354412745,0.6303312655,456.5,467.5,831.8478907,0.7428387543,2.582563906,506.5,517.5,676.3285024,85.35897529,603.9931371
357,368,1397.515528,0.3382649151,0.8287856898,407,418,1076.555024,0.536660108,0.6305250225,457,468,854.7008547,0.7430948323,2.588843777,507,518,694.980695,86.28241119,610.6289311
357.5,368.5,1434.386509,0.3384656988,0.8294759736,407.5,418.5,1105.137395,0.5378789415,0.6307187795,457.5,468.5,877.5050397,0.7433509103,2.595123648,507.5,518.5,713.5969142,87.20584708,617.2647251
358,369,1471.157569,0.3386664824,0.8301662574,408,419,1133.651551,0.539097775,0.6309125365,458,469,900.2606018,0.7436069883,2.601403519,508,519,732.177264,88.12928298,623.9005191
358.5,369.5,1507.829113,0.3388672661,0.8308565413,408.5,419.5,1162.097735,0.5403166085,0.6311062934,458.5,469.5,922.9676961,0.7438630663,2.60768339,508.5,519.5,750.7218479,89.05271887,630.5363131
359,370,1544.401544,0.3390680498,0.8315468251,409,420,1190.47619,0.5415354419,0.6313000504,459,470,945.6264775,0.7441191443,2.613963261,509,520,769.2307692,89.97615477,637.1721071
359.5,370.5,1580.875265,0.3392688335,0.8322371089,409.5,420.5,1218.787158,0.5427542754,0.6314938074,459.5,470.5,968.2371,0.7443752223,2.620243132,509.5,520.5,787.7041306,90.89959066,643.8079011
360,371,1617.250674,0.3394696172,0.8329273927,410,421,1247.030879,0.5439731089,0.6316875644,460,471,990.7997169,0.7446313003,2.626523003,510,521,806.1420345,91.82302655,650.4436951
360.5,371.5,1653.528168,0.3396704008,0.8336176766,410.5,421.5,1275.207592,0.5451919424,0.6318813213,460.5,471.5,1013.314481,0.7448873783,2.632802874,510.5,521.5,824.5445829,92.74646245,657.0794891
361,372,1689.708141,0.3398711845,0.8343079604,411,422,1303.317536,0.5464107759,0.6320750783,461,472,1035.781544,0.7451434563,2.639082745,511,522,842.9118774,93.66989834,663.7152831
361.5,372.5,1725.790988,0.3400719682,0.8349982442,411.5,422.5,1331.360947,0.5476296094,0.6322688353,461.5,472.5,1058.201058,0.7453995344,2.645362616,511.5,522.5,861.2440191,94.59333424,670.3510771
362,373,1761.777097,0.3402727519,0.8356885281,412,423,1359.338061,0.5488484428,0.6324625923,462,473,1080.573174,0.7456556124,2.651642487,512,523,879.541109,95.51677013,676.9868711
362.5,373.5,1797.666858,0.3404735356,0.8363788119,412.5,423.5,1387.249115,0.5500672763,0.6326563492,462.5,473.5,1102.898041,0.7459116904,2.657922358,512.5,523.5,897.8032474,96.44020603,683.6226651
363,374,1833.460657,0.3406743192,0.8370690957,413,424,1415.09434,0.5512861098,0.6328501062,463,474,1125.175809,0.7461677684,2.664202229,513,524,916.0305344,97.36364192,690.2584591
363.5,374.5,1869.158879,0.3408751029,0.8377593795,413.5,424.5,1442.873969,0.5525049433,0.6330438632,463.5,474.5,1147.406627,0.7464238464,2.6704821,513.5,524.5,934.2230696,98.28707782,696.8942531
364,375,1904.761905,0.3410758866,0.8384496634,414,425,1470.588235,0.5537237768,0.6332376202,464,475,1169.590643,0.7466799244,2.676761971,514,525,952.3809524,99.21051371,703.5300471
364.5,375.5,1940.270116,0.3412766703,0.8391399472,414.5,425.5,1498.237368,0.5549426103,0.6334313771,464.5,475.5,1191.728006,0.7469360024,2.683041842,514.5,525.5,970.5042816,100.1339496,710.1658411
365,376,1975.683891,0.3414774539,0.839830231,415,426,1525.821596,0.5561614437,0.6336251341,465,476,1213.818861,0.7471920804,2.689321713,515,526,988.5931559,101.0573855,716.8016351
365.5,376.5,2011.003605,0.3416782376,0.8405205149,415.5,426.5,1553.341149,0.5573802772,0.6338188911,465.5,476.5,1235.863355,0.7474481584,2.695601584,515.5,526.5,1006.647673,101.9808214,723.4374291
366,377,2046.229632,0.3418790213,0.8412107987,416,427,1580.796253,0.5585991107,0.6340126481,466,477,1257.861635,0.7477042364,2.701881455,516,527,1024.667932,102.9042573,730.0732231
366.5,377.5,2081.362346,0.342079805,0.8419010825,416.5,427.5,1608.187135,0.5598179442,0.634206405,466.5,477.5,1279.813845,0.7479603144,2.708161326,516.5,527.5,1042.654028,103.8276932,736.7090172
367,378,2116.402116,0.3422805887,0.8425913663,417,428,1635.514019,0.5610367777,0.634400162,467,478,1301.72013,0.7482163924,2.714441197,517,528,1060.606061,104.7511291,743.3448112
367.5,378.5,2151.349311,0.3424813723,0.8432816502,417.5,428.5,1662.77713,0.5622556112,0.634593919,467.5,478.5,1323.580634,0.7484724704,2.720721068,517.5,528.5,1078.524125,105.674565,749.9806052
368,379,2186.204297,0.342682156,0.843971934,418,429,1689.97669,0.5634744446,0.634787676,468,479,1345.3955,0.7487285485,2.727000939,518,529,1096.408318,106.5980009,756.6163992
368.5,379.5,2220.967438,0.3428829397,0.8446622178,418.5,429.5,1717.112922,0.5646932781,0.6349814329,468.5,479.5,1367.164871,0.7489846265,2.73328081,518.5,529.5,1114.258735,107.5214368,763.2521932
369,380,2255.639098,0.3430837234,0.8453525017,419,430,1744.186047,0.5659121116,0.6351751899,469,480,1388.888889,0.7492407045,2.739560681,519,530,1132.075472,108.4448727,769.8879872
369.5,380.5,2290.219636,0.3432845071,0.8460427855,419.5,430.5,1771.196283,0.5671309451,0.6353689469,469.5,480.5,1410.567696,0.7494967825,2.745840552,519.5,530.5,1149.858624,109.3683085,776.5237812
370,381,2324.709411,0.3434852907,0.8467330693,420,431,1798.143852,0.5683497786,0.6355627039,470,481,1432.201432,0.7497528605,2.752120423,520,531,1167.608286,110.2917444,783.1595752
370.5,381.5,2359.108781,0.3436860744,0.8474233531,420.5,431.5,1825.028969,0.5695686121,0.6357564608,470.5,481.5,1453.790239,0.7500089385,2.758400294,520.5,531.5,1185.324553,111.2151803,789.7953692
371,382,2393.4181,0.3438868581,0.848113637,421,432,1851.851852,0.5707874455,0.6359502178,471,482,1475.334255,0.7502650165,2.764680165,521,532,1203.007519,112.1386162,796.4311632
371.5,382.5,2427.637722,0.3440876418,0.8488039208,421.5,432.5,1878.612717,0.572006279,0.6361439748,471.5,482.5,1496.833621,0.7505210945,2.770960036,521.5,532.5,1220.657277,113.0620521,803.0669572
372,383,2461.767997,0.3442884254,0.8494942046,422,433,1905.311778,0.5732251125,0.6363377318,472,483,1518.288475,0.7507771725,2.777239907,522,533,1238.273921,113.985488,809.7027512
372.5,383.5,2495.809275,0.3444892091,0.8501844884,422.5,433.5,1931.94925,0.574443946,0.6365314887,472.5,483.5,1539.698954,0.7510332505,2.783519778,522.5,533.5,1255.857545,114.9089239,816.3385452
373,384,2529.761905,0.3446899928,0.8508747723,423,434,1958.525346,0.5756627795,0.6367252457,473,484,1561.065197,0.7512893285,2.789799649,523,534,1273.40824,115.8323598,822.9743392
373.5,384.5,2563.626231,0.3448907765,0.8515650561,423.5,434.5,1985.040276,0.576881613,0.6369190027,473.5,484.5,1582.387341,0.7515454065,2.79607952,523.5,534.5,1290.926099,116.7557957,829.6101332
374,385,2597.402597,0.3450915602,0.8522553399,424,435,2011.494253,0.5781004464,0.6371127597,474,485,1603.665521,0.7518014845,2.802359391,524,535,1308.411215,117.6792316,836.2459272
374.5,385.5,2631.091347,0.3452923438,0.8529456238,424.5,435.5,2037.887486,0.5793192799,0.6373065167,474.5,485.5,1624.899874,0.7520575626,2.808639262,524.5,535.5,1325.863679,118.6026675,842.8817212
375,386,2664.69282,0.3454931275,0.8536359076,425,436,2064.220183,0.5805381134,0.6375002736,475,486,1646.090535,0.7523136406,2.814919133,525,536,1343.283582,119.5261034,849.5175152
375.5,386.5,2698.207355,0.3456939112,0.8543261914,425.5,436.5,2090.492554,0.5817569469,0.6376940306,475.5,486.5,1667.237638,0.7525697186,2.821199004,525.5,536.5,1360.671016,120.4495393,856.1533092
376,387,2731.63529,0.3458946949,0.8550164752,426,437,2116.704805,0.5829757804,0.6378877876,476,487,1688.341319,0.7528257966,2.827478875,526,537,1378.026071,121.3729752,862.7891032
376.5,387.5,2764.976959,0.3460954785,0.8557067591,426.5,437.5,2142.857143,0.5841946139,0.6380815446,476.5,487.5,1709.401709,0.7530818746,2.833758746,526.5,537.5,1395.348837,122.2964111,869.4248972
377,388,2798.232695,0.3462962622,0.8563970429,427,438,2168.949772,0.5854134473,0.6382753015,477,488,1730.418944,0.7533379526,2.840038617,527,538,1412.639405,123.219847,876.0606912
377.5,388.5,2831.402831,0.3464970459,0.8570873267,427.5,438.5,2194.982896,0.5866322808,0.6384690585,477.5,488.5,1751.393154,0.7535940306,2.846318488,527.5,538.5,1429.897864,124.1432829,882.6964852
378,389,2864.487697,0.3466978296,0.8577776106,428,439,2220.95672,0.5878511143,0.6386628155,478,489,1772.324472,0.7538501086,2.852598359,528,539,1447.124304,125.0667188,889.3322792
378.5,389.5,2897.487621,0.3468986133,0.8584678944,428.5,439.5,2246.871445,0.5890699478,0.6388565725,478.5,489.5,1793.213029,0.7541061866,2.85887823,528.5,539.5,1464.318814,125.9901546,895.9680732
379,390,2930.40293,0.3470993969,0.8591581782,429,440,2272.727273,0.5902887813,0.6390503294,479,490,1814.058957,0.7543622646,2.865158101,529,540,1481.481481,126.9135905,902.6038672
379.5,390.5,2963.233949,0.3473001806,0.859848462,429.5,440.5,2298.524404,0.5915076148,0.6392440864,479.5,490.5,1834.862385,0.7546183426,2.871437972,529.5,540.5,1498.612396,127.8370264,909.2396612
380,391,2995.981001,0.3475009643,0.8605387459,430,441,2324.263039,0.5927264482,0.6394378434,480,491,1855.623444,0.7548744206,2.877717843,530,541,1515.711645,128.7604623,915.8754552
380.5,391.5,3028.644408,0.347701748,0.8612290297,430.5,441.5,2349.943375,0.5939452817,0.6396316004,480.5,491.5,1876.342263,0.7551304986,2.883997714,530.5,541.5,1532.779317,129.6838982,922.5112492
381,392,3061.22449,0.3479025317,0.8619193135,431,442,2375.565611,0.5951641152,0.6398253573,481,492,1897.01897,0.7553865767,2.890277585,531,542,1549.815498,130.6073341,929.1470432
381.5,392.5,3093.721565,0.3481033153,0.8626095974,431.5,442.5,2401.129944,0.5963829487,0.6400191143,481.5,492.5,1917.653694,0.7556426547,2.896557456,531.5,542.5,1566.820276,131.53077,935.7828372
382,393,3126.135951,0.348304099,0.8632998812,432,443,2426.636569,0.5976017822,0.6402128713,482,493,1938.246563,0.7558987327,2.902837327,532,543,1583.793738,132.4542059,942.4186312
382.5,393.5,3158.467962,0.3485048827,0.863990165,432.5,443.5,2452.085682,0.5988206157,0.6404066283,482.5,493.5,1958.797703,0.7561548107,2.909117198,532.5,543.5,1600.735971,133.3776418,949.0544252
383,394,3190.717912,0.3487056664,0.8646804488,433,444,2477.477477,0.6000394491,0.6406003852,483,494,1979.307242,0.7564108887,2.915397069,533,544,1617.647059,134.3010777,955.6902192
383.5,394.5,3222.886113,0.34890645,0.8653707327,433.5,444.5,2502.812148,0.6012582826,0.6407941422,483.5,494.5,1999.775306,0.7566669667,2.92167694,533.5,544.5,1634.527089,135.2245136,962.3260132
384,395,3254.972875,0.3491072337,0.8660610165,434,445,2528.089888,0.6024771161,0.6409878992,484,495,2020.20202,0.7569230447,2.927956811,534,545,1651.376147,136.1479495,968.9618072
384.5,395.5,3286.978508,0.3493080174,0.8667513003,434.5,445.5,2553.310887,0.6036959496,0.6411816562,484.5,495.5,2040.58751,0.7571791227,2.934236682,534.5,545.5,1668.194317,137.0713854,975.5976012
385,396,3318.903319,0.3495088011,0.8674415842,435,446,2578.475336,0.6049147831,0.6413754131,485,496,2060.9319,0.7574352007,2.940516553,535,546,1684.981685,137.9948213,982.2333952
385.5,396.5,3350.747613,0.3497095848,0.868131868,435.5,446.5,2603.583427,0.6061336166,0.6415691701,485.5,496.5,2081.235314,0.7576912787,2.946796424,535.5,546.5,1701.738335,138.9182572,988.8691892
386,397,3382.511695,0.3499103684,0.8688221518,436,447,2628.635347,0.60735245,0.6417629271,486,497,2101.497876,0.7579473567,2.953076295,536,547,1718.464351,139.8416931,995.5049832
386.5,397.5,3414.195867,0.3501111521,0.8695124356,436.5,447.5,2653.631285,0.6085712835,0.6419566841,486.5,497.5,2121.71971,0.7582034347,2.959356166,536.5,547.5,1735.159817,140.765129,1002.140777
387,398,3445.800431,0.3503119358,0.8702027195,437,448,2678.571429,0.609790117,0.642150441,487,498,2141.900937,0.7584595128,2.965636037,537,548,1751.824818,141.6885649,1008.776571
387.5,398.5,3477.325686,0.3505127195,0.8708930033,437.5,448.5,2703.455964,0.6110089505,0.642344198,487.5,498.5,2162.041681,0.7587155908,2.971915908,537.5,548.5,1768.459435,142.6120007,1015.412365
388,399,3508.77193,0.3507135032,0.8715832871,438,449,2728.285078,0.612227784,0.642537955,488,499,2182.142062,0.7589716688,2.978195779,538,549,1785.063752,143.5354366,1022.048159
388.5,399.5,3540.13946,0.3509142868,0.872273571,438.5,449.5,2753.058954,0.6134466175,0.642731712,488.5,499.5,2202.202202,0.7592277468,2.98447565,538.5,549.5,1801.637853,144.4588725,1028.683953
389,400,3571.428571,0.3511150705,0.8729638548,439,450,2777.777778,0.6146654509,0.6429254689,489,500,2222.222222,0.7594838248,2.990755521,539,550,1818.181818,145.3823084,1035.319747
389.5,400.5,3602.639558,0.3513158542,0.8736541386,439.5,450.5,2802.441731,0.6158842844,0.6431192259,489.5,500.5,2242.202242,0.7597399028,2.997035392,539.5,550.5,1834.695731,146.3057443,1041.955541
390,401,3633.772711,0.3515166379,0.8743444224,440,451,2827.050998,0.6171031179,0.6433129829,490,501,2262.142382,0.7599959808,3.003315263,540,551,1851.179673,147.2291802,1048.591335
390.5,401.5,3664.828322,0.3517174215,0.8750347063,440.5,451.5,2851.605759,0.6183219514,0.6435067399,490.5,501.5,2282.042761,0.7602520588,3.009595134,540.5,551.5,1867.633726,148.1526161,1055.227129
391,402,3695.806681,0.3519182052,0.8757249901,441,452,2876.106195,0.6195407849,0.6437004968,491,502,2301.903497,0.7605081368,3.015875005,541,552,1884.057971,149.076052,1061.862923
391.5,402.5,3726.708075,0.3521189889,0.8764152739,441.5,452.5,2900.552486,0.6207596184,0.6438942538,491.5,502.5,2321.72471,0.7607642148,3.022154875,541.5,552.5,1900.452489,149.9994879,1068.498717
392,403,3757.53279,0.3523197726,0.8771055578,442,453,2924.944812,0.6219784518,0.6440880108,492,503,2341.506516,0.7610202928,3.028434746,542,553,1916.81736,150.9229238,1075.134511
392.5,403.5,3788.281112,0.3525205563,0.8777958416,442.5,453.5,2949.283352,0.6231972853,0.6442817678,492.5,503.5,2361.249035,0.7612763708,3.034714617,542.5,553.5,1933.152665,151.8463597,1081.770305
393,404,3818.953324,0.3527213399,0.8784861254,443,454,2973.568282,0.6244161188,0.6444755248,493,504,2380.952381,0.7615324488,3.040994488,543,554,1949.458484,152.7697956,1088.406099
393.5,404.5,3849.549709,0.3529221236,0.8791764092,443.5,454.5,2997.79978,0.6256349523,0.6446692817,493.5,504.5,2400.616672,0.7617885269,3.047274359,543.5,554.5,1965.734896,153.6932315,1095.041893
394,405,3880.070547,0.3531229073,0.8798666931,444,455,3021.978022,0.6268537858,0.6448630387,494,505,2420.242024,0.7620446049,3.05355423,544,555,1981.981982,154.6166674,1101.677687
394.5,405.5,3910.516118,0.353323691,0.8805569769,444.5,455.5,3046.103183,0.6280726193,0.6450567957,494.5,505.5,2439.828553,0.7623006829,3.059834101,544.5,555.5,1998.19982,155.5401033,1108.313481
395,406,3940.8867,0.3535244746,0.8812472607,445,456,3070.175439,0.6292914527,0.6452505527,495,506,2459.376372,0.7625567609,3.066113972,545,556,2014.388489,156.4635392,1114.949275
395.5,406.5,3971.182569,0.3537252583,0.8819375446,445.5,456.5,3094.194962,0.6305102862,0.6454443096,495.5,506.5,2478.885598,0.7628128389,3.072393843,545.5,556.5,2030.548068,157.3869751,1121.585069
396,407,4001.404001,0.353926042,0.8826278284,446,457,3118.161926,0.6317291197,0.6456380666,496,507,2498.356345,0.7630689169,3.078673714,546,557,2046.678636,158.310411,1128.220863
396.5,407.5,4031.551271,0.3541268257,0.8833181122,446.5,457.5,3142.076503,0.6329479532,0.6458318236,496.5,507.5,2517.788725,0.7633249949,3.084953585,546.5,557.5,2062.780269,159.2338468,1134.856657
397,408,4061.62465,0.3543276094,0.884008396,447,458,3165.938865,0.6341667867,0.6460255806,497,508,2537.182852,0.7635810729,3.091233456,547,558,2078.853047,160.1572827,1141.492451
397.5,408.5,4091.62441,0.354528393,0.8846986799,447.5,458.5,3189.749182,0.6353856202,0.6462193375,497.5,508.5,2556.53884,0.7638371509,3.097513327,547.5,558.5,2094.897046,161.0807186,1148.128245
398,409,4121.550821,0.3547291767,0.8853889637,448,459,3213.507625,0.6366044536,0.6464130945,498,509,2575.8568,0.7640932289,3.103793198,548,559,2110.912343,162.0041545,1154.764039
398.5,409.5,4151.404151,0.3549299604,0.8860792475,448.5,459.5,3237.214363,0.6378232871,0.6466068515,498.5,509.5,2595.136844,0.7643493069,3.110073069,548.5,559.5,2126.899017,162.9275904,1161.399833
399,410,4181.184669,0.3551307441,0.8867695314,449,460,3260.869565,0.6390421206,0.6468006085,499,510,2614.379085,0.7646053849,3.11635294,549,560,2142.857143,163.8510263,1168.035627
399.5,410.5,4210.89264,0.3553315278,0.8874598152,449.5,460.5,3284.473398,0.6402609541,0.6469943654,499.5,510.5,2633.583633,0.7648614629,3.122632811,549.5,560.5,2158.786798,164.7744622,1174.671421
400,411,4240.528328,0.3555323114,0.888150099,450,461,3308.02603,0.6414797876,0.6471881224,500,511,2652.750598,0.765117541,3.128912682,550,561,2174.688057,165.6978981,1181.307215
400.5,411.5,4270.091998,0.3557330951,0.8888403828,450.5,461.5,3331.527627,0.6426986211,0.6473818794,500.5,511.5,2671.880091,0.765373619,3.135192553,550.5,561.5,2190.560997,166.621334,1187.943009
401,412,4299.583911,0.3559338788,0.8895306667,451,462,3354.978355,0.6439174545,0.6475756364,501,512,2690.972222,0.765629697,3.141472424,551,562,2206.405694,167.5447699,1194.578803
401.5,412.5,4329.004329,0.3561346625,0.8902209505,451.5,462.5,3378.378378,0.645136288,0.6477693933,501.5,512.5,2710.0271,0.765885775,3.147752295,551.5,562.5,2222.222222,168.4682058,1201.214597
402,413,4358.353511,0.3563354461,0.8909112343,452,463,3401.727862,0.6463551215,0.6479631503,502,513,2729.044834,0.766141853,3.154032166,552,563,2238.010657,169.3916417,1207.850391
402.5,413.5,4387.631715,0.3565362298,0.8916015182,452.5,463.5,3425.026969,0.647573955,0.6481569073,502.5,513.5,2748.025533,0.766397931,3.160312037,552.5,563.5,2253.771074,170.3150776,1214.486185
403,414,4416.839199,0.3567370135,0.892291802,453,464,3448.275862,0.6487927885,0.6483506643,503,514,2766.969304,0.766654009,3.166591908,553,564,2269.503546,171.2385135,1221.121979
403.5,414.5,4445.976219,0.3569377972,0.8929820858,453.5,464.5,3471.474704,0.650011622,0.6485444212,503.5,514.5,2785.876255,0.766910087,3.172871779,553.5,564.5,2285.208149,172.1619494,1227.757773
404,415,4475.043029,0.3571385809,0.8936723696,454,465,3494.623656,0.6512304554,0.6487381782,504,515,2804.746494,0.767166165,3.17915165,554,565,2300.884956,173.0853853,1234.393567
404.5,415.5,4504.039883,0.3573393645,0.8943626535,454.5,465.5,3517.722879,0.6524492889,0.6489319352,504.5,515.5,2823.580127,0.767422243,3.185431521,554.5,565.5,2316.534041,174.0088212,1241.029361
405,416,4532.967033,0.3575401482,0.8950529373,455,466,3540.772532,0.6536681224,0.6491256922,505,516,2842.377261,0.767678321,3.191711392,555,566,2332.155477,174.932257,1247.665155
405.5,416.5,4561.82473,0.3577409319,0.8957432211,455.5,466.5,3563.772776,0.6548869559,0.6493194491,505.5,516.5,2861.138002,0.767934399,3.197991263,555.5,566.5,2347.749338,175.8556929,1254.300949
406,417,4590.613224,0.3579417156,0.896433505,456,467,3586.723769,0.6561057894,0.6495132061,506,517,2879.862454,0.768190477,3.204271134,556,567,2363.315697,176.7791288,1260.936743
406.5,417.5,4619.332763,0.3581424992,0.8971237888,456.5,467.5,3609.625668,0.6573246229,0.6497069631,506.5,517.5,2898.550725,0.7684465551,3.210551005,556.5,567.5,2378.854626,177.7025647,1267.572537
407,418,4647.983595,0.3583432829,0.8978140726,457,468,3632.478632,0.6585434563,0.6499007201,507,518,2917.202917,0.7687026331,3.216830876,557,568,2394.366197,178.6260006,1274.208331
407.5,418.5,4676.565967,0.3585440666,0.8985043564,457.5,468.5,3655.282818,0.6597622898,0.650094477,507.5,518.5,2935.819136,0.7689587111,3.223110747,557.5,568.5,2409.850484,179.5494365,1280.844125
408,419,4705.080123,0.3587448503,0.8991946403,458,469,3678.03838,0.6609811233,0.650288234,508,519,2954.399486,0.7692147891,3.229390618,558,569,2425.307557,180.4728724,1287.479919
408.5,419.5,4733.526307,0.358945634,0.8998849241,458.5,469.5,3700.745474,0.6621999568,0.650481991,508.5,519.5,2972.94407,0.7694708671,3.235670489,558.5,569.5,2440.737489,181.3963083,1294.115713
409,420,4761.904762,0.3591464176,0.9005752079,459,470,3723.404255,0.6634187903,0.650675748,509,520,2991.452991,0.7697269451,3.24195036,559,570,2456.140351,182.3197442,1300.751507
409.5,420.5,4790.21573,0.3593472013,0.9012654917,459.5,470.5,3746.014878,0.6646376238,0.650869505,509.5,520.5,3009.926353,0.7699830231,3.248230231,559.5,570.5,2471.516214,183.2431801,1307.387301
410,421,4818.45945,0.359547985,0.9019557756,460,471,3768.577495,0.6658564572,0.6510632619,510,521,3028.364257,0.7702391011,3.254510102,560,571,2486.865149,184.166616,1314.023095
410.5,421.5,4846.636163,0.3597487687,0.9026460594,460.5,471.5,3791.092259,0.6670752907,0.6512570189,510.5,521.5,3046.766805,0.7704951791,3.260789973,560.5,571.5,2502.187227,185.0900519,1320.658889
411,422,4874.746107,0.3599495524,0.9033363432,461,472,3813.559322,0.6682941242,0.6514507759,511,522,3065.1341,0.7707512571,3.267069844,561,572,2517.482517,186.0134878,1327.294683
411.5,422.5,4902.789518,0.360150336,0.9040266271,461.5,472.5,3835.978836,0.6695129577,0.6516445329,511.5,522.5,3083.466241,0.7710073351,3.273349715,561.5,572.5,2532.751092,186.9369237,1333.930477
412,423,4930.766633,0.3603511197,0.9047169109,462,473,3858.350951,0.6707317912,0.6518382898,512,523,3101.763331,0.7712634131,3.279629586,562,573,2547.993019,187.8603596,1340.566271
412.5,423.5,4958.677686,0.3605519034,0.9054071947,462.5,473.5,3880.675818,0.6719506247,0.6520320468,512.5,523.5,3120.02547,0.7715194911,3.285909457,562.5,573.5,2563.20837,188.7837955,1347.202065
413,424,4986.522911,0.3607526871,0.9060974785,463,474,3902.953586,0.6731694581,0.6522258038,513,524,3138.252757,0.7717755692,3.292189328,563,574,2578.397213,189.7072314,1353.837859
413.5,424.5,5014.302541,0.3609534707,0.9067877624,463.5,474.5,3925.184405,0.6743882916,0.6524195608,513.5,524.5,3156.445292,0.7720316472,3.298469199,563.5,574.5,2593.559617,190.6306673,1360.473653
414,425,5042.016807,0.3611542544,0.9074780462,464,475,3947.368421,0.6756071251,0.6526133177,514,525,3174.603175,0.7722877252,3.30474907,564,575,2608.695652,191.5541031,1367.109447
414.5,425.5,5069.665939,0.3613550381,0.90816833,464.5,475.5,3969.505783,0.6768259586,0.6528070747,514.5,525.5,3192.726504,0.7725438032,3.311028941,564.5,575.5,2623.805387,192.477539,1373.745241
415,426,5097.250168,0.3615558218,0.9088586139,465,476,3991.596639,0.6780447921,0.6530008317,515,526,3210.815378,0.7727998812,3.317308812,565,576,2638.888889,193.4009749,1380.381035
415.5,426.5,5124.76972,0.3617566055,0.9095488977,465.5,476.5,4013.641133,0.6792636256,0.6531945887,515.5,526.5,3228.869896,0.7730559592,3.323588683,565.5,576.5,2653.946227,194.3244108,1387.016829
416,427,5152.224824,0.3619573891,0.9102391815,466,477,4035.639413,0.680482459,0.6533883456,516,527,3246.890154,0.7733120372,3.329868554,566,577,2668.97747,195.2478467,1393.652623
416.5,427.5,5179.615706,0.3621581728,0.9109294653,466.5,477.5,4057.591623,0.6817012925,0.6535821026,516.5,527.5,3264.876251,0.7735681152,3.336148425,566.5,577.5,2683.982684,196.1712826,1400.288417
417,428,5206.94259,0.3623589565,0.9116197492,467,478,4079.497908,0.682920126,0.6537758596,517,528,3282.828283,0.7738241932,3.342428296,567,578,2698.961938,197.0947185,1406.924211
417.5,428.5,5234.205701,0.3625597402,0.912310033,467.5,478.5,4101.358412,0.6841389595,0.6539696166,517.5,528.5,3300.746347,0.7740802712,3.348708167,567.5,578.5,2713.915298,198.0181544,1413.560005
418,429,5261.405261,0.3627605239,0.9130003168,468,479,4123.173278,0.685357793,0.6541633735,518,529,3318.63054,0.7743363492,3.354988038,568,579,2728.842832,198.9415903,1420.195799
418.5,429.5,5288.541493,0.3629613075,0.9136906007,468.5,479.5,4144.942649,0.6865766265,0.6543571305,518.5,529.5,3336.480957,0.7745924272,3.361267909,568.5,579.5,2743.744607,199.8650262,1426.831593
419,430,5315.614618,0.3631620912,0.9143808845,469,480,4166.666667,0.6877954599,0.6545508875,519,530,3354.297694,0.7748485053,3.36754778,569,580,2758.62069,200.7884621,1433.467387
419.5,430.5,5342.624855,0.3633628749,0.9150711683,469.5,480.5,4188.345473,0.6890142934,0.6547446445,519.5,530.5,3372.080846,0.7751045833,3.373827651,569.5,580.5,2773.471146,201.711898,1440.103181
420,431,5369.572423,0.3635636586,0.9157614521,470,481,4209.97921,0.6902331269,0.6549384014,520,531,3389.830508,0.7753606613,3.380107522,570,581,2788.296041,202.6353339,1446.738975
420.5,431.5,5396.45754,0.3637644422,0.916451736,470.5,481.5,4231.568017,0.6914519604,0.6551321584,520.5,531.5,3407.546775,0.7756167393,3.386387393,570.5,581.5,2803.095443,203.5587698,1453.374769
421,432,5423.280423,0.3639652259,0.9171420198,471,482,4253.112033,0.6926707939,0.6553259154,521,532,3425.229741,0.7758728173,3.392667264,571,582,2817.869416,204.4822057,1460.010563
421.5,432.5,5450.041288,0.3641660096,0.9178323036,471.5,482.5,4274.611399,0.6938896274,0.6555196724,521.5,532.5,3442.879499,0.7761288953,3.398947135,571.5,582.5,2832.618026,205.4056416,1466.646357
422,433,5476.74035,0.3643667933,0.9185225875,472,483,4296.066253,0.6951084608,0.6557134293,522,533,3460.496143,0.7763849733,3.405227006,572,583,2847.341338,206.3290775,1473.282151
422.5,433.5,5503.377822,0.364567577,0.9192128713,472.5,483.5,4317.476732,0.6963272943,0.6559071863,522.5,533.5,3478.079767,0.7766410513,3.411506877,572.5,583.5,2862.039417,207.2525134,1479.917945
423,434,5529.953917,0.3647683606,0.9199031551,473,484,4338.842975,0.6975461278,0.6561009433,523,534,3495.630462,0.7768971293,3.417786748,573,584,2876.712329,208.1759492,1486.553739
423.5,434.5,5556.468848,0.3649691443,0.9205934389,473.5,484.5,4360.165119,0.6987649613,0.6562947003,523.5,534.5,3513.148321,0.7771532073,3.424066619,573.5,584.5,2891.360137,209.0993851,1493.189533
424,435,5582.922824,0.365169928,0.9212837228,474,485,4381.443299,0.6999837948,0.6564884572,524,535,3530.633437,0.7774092853,3.43034649,574,585,2905.982906,210.022821,1499.825327
424.5,435.5,5609.316057,0.3653707117,0.9219740066,474.5,485.5,4402.677652,0.7012026283,0.6566822142,524.5,535.5,3548.085901,0.7776653633,3.436626361,574.5,585.5,2920.5807,210.9462569,1506.461121
425,436,5635.648755,0.3655714953,0.9226642904,475,486,4423.868313,0.7024214617,0.6568759712,525,536,3565.505804,0.7779214413,3.442906232,575,586,2935.153584,211.8696928,1513.096915
425.5,436.5,5661.921126,0.365772279,0.9233545743,475.5,486.5,4445.015416,0.7036402952,0.6570697282,525.5,536.5,3582.893238,0.7781775194,3.449186103,575.5,586.5,2949.70162,212.7931287,1519.732709
426,437,5688.133377,0.3659730627,0.9240448581,476,487,4466.119097,0.7048591287,0.6572634851,526,537,3600.248293,0.7784335974,3.455465974,576,587,2964.224872,213.7165646,1526.368503
426.5,437.5,5714.285714,0.3661738464,0.9247351419,476.5,487.5,4487.179487,0.7060779622,0.6574572421,526.5,537.5,3617.571059,0.7786896754,3.461745845,576.5,587.5,2978.723404,214.6400005,1533.004297
427,438,5740.378343,0.3663746301,0.9254254257,477,488,4508.196721,0.7072967957,0.6576509991,527,538,3634.861627,0.7789457534,3.468025716,577,588,2993.197279,215.5634364,1539.640091
427.5,438.5,5766.411468,0.3665754137,0.9261157096,477.5,488.5,4529.170931,0.7085156292,0.6578447561,527.5,538.5,3652.120087,0.7792018314,3.474305587,577.5,588.5,3007.646559,216.4868723,1546.275885
428,439,5792.385291,0.3667761974,0.9268059934,478,489,4550.102249,0.7097344626,0.6580385131,528,539,3669.346526,0.7794579094,3.480585458,578,589,3022.071307,217.4103082,1552.911679
428.5,439.5,5818.300016,0.3669769811,0.9274962772,478.5,489.5,4570.990807,0.7109532961,0.65823227,528.5,539.5,3686.541036,0.7797139874,3.486865329,578.5,589.5,3036.471586,218.3337441,1559.547473
429,440,5844.155844,0.3671777648,0.9281865611,479,490,4591.836735,0.7121721296,0.658426027,529,540,3703.703704,0.7799700654,3.4931452,579,590,3050.847458,219.25718,1566.183267
429.5,440.5,5869.952976,0.3673785485,0.9288768449,479.5,490.5,4612.640163,0.7133909631,0.658619784,529.5,540.5,3720.834618,0.7802261434,3.499425071,579.5,590.5,3065.198984,220.1806159,1572.819061
430,441,5895.69161,0.3675793321,0.9295671287,480,491,4633.401222,0.7146097966,0.658813541,530,541,3737.933867,0.7804822214,3.505704941,580,591,3079.526227,221.1040518,1579.454855
430.5,441.5,5921.371946,0.3677801158,0.9302574125,480.5,491.5,4654.120041,0.7158286301,0.6590072979,530.5,541.5,3755.001539,0.7807382994,3.511984812,580.5,591.5,3093.829248,222.0274877,1586.090649
431,442,5946.994182,0.3679808995,0.9309476964,481,492,4674.796748,0.7170474635,0.6592010549,531,542,3772.03772,0.7809943774,3.518264683,581,592,3108.108108,222.9509236,1592.726443
431.5,442.5,5972.558515,0.3681816832,0.9316379802,481.5,492.5,4695.431472,0.718266297,0.6593948119,531.5,542.5,3789.042499,0.7812504554,3.524544554,581.5,592.5,3122.362869,223.8743595,1599.362237
432,443,5998.06514,0.3683824668,0.932328264,482,493,4716.024341,0.7194851305,0.6595885689,532,543,3806.015961,0.7815065335,3.530824425,582,593,3136.593592,224.7977953,1605.998031
432.5,443.5,6023.514254,0.3685832505,0.9330185479,482.5,493.5,4736.575481,0.720703964,0.6597823258,532.5,543.5,3822.958193,0.7817626115,3.537104296,582.5,593.5,3150.800337,225.7212312,1612.633825
433,444,6048.906049,0.3687840342,0.9337088317,483,494,4757.08502,0.7219227975,0.6599760828,533,544,3839.869281,0.7820186895,3.543384167,583,594,3164.983165,226.6446671,1619.269619
433.5,444.5,6074.24072,0.3689848179,0.9343991155,483.5,494.5,4777.553084,0.723141631,0.6601698398,533.5,544.5,3856.749311,0.7822747675,3.549664038,583.5,594.5,3179.142136,227.568103,1625.905413
434,445,6099.518459,0.3691856016,0.9350893993,484,495,4797.979798,0.7243604644,0.6603635968,534,545,3873.598369,0.7825308455,3.555943909,584,595,3193.277311,228.4915389,1632.541207
434.5,445.5,6124.739458,0.3693863852,0.9357796832,484.5,495.5,4818.365288,0.7255792979,0.6605573537,534.5,545.5,3890.416539,0.7827869235,3.56222378,584.5,595.5,3207.388749,229.4149748,1639.177001
435,446,6149.903908,0.3695871689,0.936469967,485,496,4838.709677,0.7267981314,0.6607511107,535,546,3907.203907,0.7830430015,3.568503651,585,596,3221.47651,230.3384107,1645.812795
435.5,446.5,6175.011998,0.3697879526,0.9371602508,485.5,496.5,4859.013092,0.7280169649,0.6609448677,535.5,546.5,3923.960557,0.7832990795,3.574783522,585.5,596.5,3235.540654,231.2618466,1652.448589
436,447,6200.063918,0.3699887363,0.9378505347,486,497,4879.275654,0.7292357984,0.6611386247,536,547,3940.686573,0.7835551575,3.581063393,586,597,3249.58124,232.1852825,1659.084383
436.5,447.5,6225.059856,0.37018952,0.9385408185,486.5,497.5,4899.497487,0.7304546319,0.6613323816,536.5,547.5,3957.38204,0.7838112355,3.587343264,586.5,597.5,3263.598326,233.1087184,1665.720177
437,448,6250,0.3703903036,0.9392311023,487,498,4919.678715,0.7316734653,0.6615261386,537,548,3974.04704,0.7840673135,3.593623135,587,598,3277.591973,234.0321543,1672.355971
437.5,448.5,6274.884536,0.3705910873,0.9399213861,487.5,498.5,4939.819458,0.7328922988,0.6617198956,537.5,548.5,3990.681657,0.7843233915,3.599903006,587.5,598.5,3291.562239,234.9555902,1678.991765
438,449,6299.713649,0.370791871,0.94061167,488,499,4959.91984,0.7341111323,0.6619136526,538,549,4007.285974,0.7845794695,3.606182877,588,599,3305.509182,235.8790261,1685.627559
438.5,449.5,6324.487526,0.3709926547,0.9413019538,488.5,499.5,4979.97998,0.7353299658,0.6621074095,538.5,549.5,4023.860075,0.7848355476,3.612462748,588.5,599.5,3319.432861,236.802462,1692.263353
439,450,6349.206349,0.3711934383,0.9419922376,489,500,5000,0.7365487993,0.6623011665,539,550,4040.40404,0.7850916256,3.618742619,589,600,3333.333333,237.7258979,1698.899147
439.5,450.5,6373.870303,0.371394222,0.9426825215,489.5,500.5,5019.98002,0.7377676328,0.6624949235,539.5,550.5,4056.917953,0.7853477036,3.62502249,589.5,600.5,3347.210658,238.6493338,1705.534941
440,451,6398.479569,0.3715950057,0.9433728053,490,501,5039.92016,0.7389864662,0.6626886805,540,551,4073.401896,0.7856037816,3.631302361,590,601,3361.064892,239.5727697,1712.170735
440.5,451.5,6423.03433,0.3717957894,0.9440630891,490.5,501.5,5059.820538,0.7402052997,0.6628824374,540.5,551.5,4089.855948,0.7858598596,3.637582232,590.5,601.5,3374.896093,240.4962056,1718.806529
441,452,6447.534766,0.3719965731,0.9447533729,491,502,5079.681275,0.7414241332,0.6630761944,541,552,4106.280193,0.7861159376,3.643862103,591,602,3388.704319,241.4196414,1725.442323
441.5,452.5,6471.981058,0.3721973567,0.9454436568,491.5,502.5,5099.502488,0.7426429667,0.6632699514,541.5,552.5,4122.674711,0.7863720156,3.650141974,591.5,602.5,3402.489627,242.3430773,1732.078117
442,453,6496.373384,0.3723981404,0.9461339406,492,503,5119.284294,0.7438618002,0.6634637084,542,553,4139.039582,0.7866280936,3.656421845,592,603,3416.252073,243.2665132,1738.713911
442.5,453.5,6520.711923,0.3725989241,0.9468242244,492.5,503.5,5139.026812,0.7450806337,0.6636574653,542.5,553.5,4155.374887,0.7868841716,3.662701716,592.5,603.5,3429.991715,244.1899491,1745.349705
443,454,6544.996853,0.3727997078,0.9475145083,493,504,5158.730159,0.7462994671,0.6638512223,543,554,4171.680706,0.7871402496,3.668981587,593,604,3443.708609,245.113385,1751.985499
443.5,454.5,6569.228351,0.3730004914,0.9482047921,493.5,504.5,5178.39445,0.7475183006,0.6640449793,543.5,554.5,4187.957119,0.7873963276,3.675261458,593.5,604.5,3457.402812,246.0368209,1758.621293
444,455,6593.406593,0.3732012751,0.9488950759,494,505,5198.019802,0.7487371341,0.6642387363,544,555,4204.204204,0.7876524056,3.681541329,594,605,3471.07438,246.9602568,1765.257087
444.5,455.5,6617.531755,0.3734020588,0.9495853597,494.5,505.5,5217.60633,0.7499559676,0.6644324932,544.5,555.5,4220.422042,0.7879084836,3.6878212,594.5,605.5,3484.723369,247.8836927,1771.892881
445,456,6641.60401,0.3736028425,0.9502756436,495,506,5237.15415,0.7511748011,0.6646262502,545,556,4236.610711,0.7881645617,3.694101071,595,606,3498.349835,248.8071286,1778.528675
445.5,456.5,6665.623533,0.3738036262,0.9509659274,495.5,506.5,5256.663376,0.7523936346,0.6648200072,545.5,556.5,4252.770291,0.7884206397,3.700380942,595.5,606.5,3511.953833,249.7305645,1785.164469
446,457,6689.590497,0.3740044098,0.9516562112,496,507,5276.134122,0.753612468,0.6650137642,546,557,4268.900858,0.7886767177,3.706660813,596,607,3525.53542,250.6540004,1791.800263
446.5,457.5,6713.505074,0.3742051935,0.952346495,496.5,507.5,5295.566502,0.7548313015,0.6652075212,546.5,557.5,4285.002491,0.7889327957,3.712940684,596.5,607.5,3539.09465,251.5774363,1798.436057
447,458,6737.367436,0.3744059772,0.9530367789,497,508,5314.96063,0.756050135,0.6654012781,547,558,4301.075269,0.7891888737,3.719220555,597,608,3552.631579,252.5008722,1805.071851
447.5,458.5,6761.177754,0.3746067609,0.9537270627,497.5,508.5,5334.316618,0.7572689685,0.6655950351,547.5,558.5,4317.119268,0.7894449517,3.725500426,597.5,608.5,3566.146261,253.4243081,1811.707645
448,459,6784.936197,0.3748075446,0.9544173465,498,509,5353.634578,0.758487802,0.6657887921,548,559,4333.134566,0.7897010297,3.731780297,598,609,3579.638752,254.347744,1818.343439
448.5,459.5,6808.642935,0.3750083282,0.9551076304,498.5,509.5,5372.914622,0.7597066355,0.6659825491,548.5,559.5,4349.121239,0.7899571077,3.738060168,598.5,609.5,3593.109106,255.2711799,1824.979233
449,460,6832.298137,0.3752091119,0.9557979142,499,510,5392.156863,0.7609254689,0.666176306,549,560,4365.079365,0.7902131857,3.744340039,599,610,3606.557377,256.1946158,1831.615027
449.5,460.5,6855.90197,0.3754098956,0.956488198,499.5,510.5,5411.36141,0.7621443024,0.666370063,549.5,560.5,4381.00902,0.7904692637,3.75061991,599.5,610.5,3619.98362,257.1180517,1838.250821
450,461,6879.454602,0.3756106793,0.9571784818,500,511,5430.528376,0.7633631359,0.66656382,550,561,4396.910279,0.7907253417,3.756899781,600,611,3633.387889,258.0414875,1844.886615
450.5,461.5,6902.956199,0.3758114629,0.9578687657,500.5,511.5,5449.657869,0.7645819694,0.666757577,550.5,561.5,4412.78322,0.7909814197,3.763179652,600.5,611.5,3646.770237,258.9649234,1851.522409
451,462,6926.406926,0.3760122466,0.9585590495,501,512,5468.75,0.7658008029,0.6669513339,551,562,4428.627916,0.7912374977,3.769459523,601,612,3660.130719,259.8883593,1858.158203
451.5,462.5,6949.80695,0.3762130303,0.9592493333,501.5,512.5,5487.804878,0.7670196364,0.6671450909,551.5,562.5,4444.444444,0.7914935758,3.775739394,601.5,612.5,3673.469388,260.8117952,1864.793997
452,463,6973.156433,0.376413814,0.9599396172,502,513,5506.822612,0.7682384698,0.6673388479,552,563,4460.232879,0.7917496538,3.782019265,602,613,3686.786297,261.7352311,1871.429791
452.5,463.5,6996.45554,0.3766145977,0.960629901,502.5,513.5,5525.803311,0.7694573033,0.6675326049,552.5,563.5,4475.993296,0.7920057318,3.788299136,602.5,613.5,3700.0815,262.658667,1878.065585
453,464,7019.704433,0.3768153813,0.9613201848,503,514,5544.747082,0.7706761368,0.6677263618,553,564,4491.725768,0.7922618098,3.794579007,603,614,3713.355049,263.5821029,1884.701379
453.5,464.5,7042.903275,0.377016165,0.9620104686,503.5,514.5,5563.654033,0.7718949703,0.6679201188,553.5,564.5,4507.430371,0.7925178878,3.800858878,603.5,614.5,3726.606998,264.5055388,1891.337173
454,465,7066.052227,0.3772169487,0.9627007525,504,515,5582.524272,0.7731138038,0.6681138758,554,565,4523.107178,0.7927739658,3.807138749,604,615,3739.837398,265.4289747,1897.972967
,,,,,,,,,,,,,,,604.5,615.5,3753.046304,266.3524106,1904.608761
,,,,,,,,,,,,,,,605,616,3766.233766,267.2758465,1911.244555
,,,,,,,,,,,,,,,605.5,616.5,3779.399838,268.1992824,1917.880349
,,,,,,,,,,,,,,,606,617,3792.544571,269.1227183,1924.516143
,,,,,,,,,,,,,,,606.5,617.5,3805.668016,270.0461542,1931.151937
,,,,,,,,,,,,,,,607,618,3818.770227,270.9695901,1937.787731
,,,,,,,,,,,,,,,607.5,618.5,3831.851253,271.893026,1944.423525
,,,,,,,,,,,,,,,608,619,3844.911147,272.8164619,1951.059319
,,,,,,,,,,,,,,,608.5,619.5,3857.94996,273.7398977,1957.695113
,,,,,,,,,,,,,,,609,620,3870.967742,274.6633336,1964.330907
,,,,,,,,,,,,,,,609.5,620.5,3883.964545,275.5867695,1970.966701
,,,,,,,,,,,,,,,610,621,3896.940419,276.5102054,1977.602495
,,,,,,,,,,,,,,,610.5,621.5,3909.895414,277.4336413,1984.238289
,,,,,,,,,,,,,,,611,622,3922.829582,278.3570772,1990.874083
,,,,,,,,,,,,,,,611.5,622.5,3935.742972,279.2805131,1997.509877
,,,,,,,,,,,,,,,612,623,3948.635634,280.203949,2004.145671
,,,,,,,,,,,,,,,612.5,623.5,3961.507618,281.1273849,2010.781465
,,,,,,,,,,,,,,,613,624,3974.358974,282.0508208,2017.417259
,,,,,,,,,,,,,,,613.5,624.5,3987.189752,282.9742567,2024.053053
,,,,,,,,,,,,,,,614,625,4000,283.8976926,2030.688848
,,,,,,,,,,,,,,,614.5,625.5,4012.789768,284.8211285,2037.324642
,,,,,,,,,,,,,,,615,626,4025.559105,285.7445644,2043.960436
,,,,,,,,,,,,,,,615.5,626.5,4038.308061,286.6680003,2050.59623
,,,,,,,,,,,,,,,616,627,4051.036683,287.5914362,2057.232024
,,,,,,,,,,,,,,,616.5,627.5,4063.74502,288.5148721,2063.867818
,,,,,,,,,,,,,,,617,628,4076.433121,289.438308,2070.503612
,,,,,,,,,,,,,,,617.5,628.5,4089.101034,290.3617438,2077.139406
,,,,,,,,,,,,,,,618,629,4101.748808,291.2851797,2083.7752
,,,,,,,,,,,,,,,618.5,629.5,4114.376489,292.2086156,2090.410994
,,,,,,,,,,,,,,,619,630,4126.984127,293.1320515,2097.046788
,,,,,,,,,,,,,,,619.5,630.5,4139.571768,294.0554874,2103.682582
,,,,,,,,,,,,,,,620,631,4152.139461,294.9789233,2110.318376
,,,,,,,,,,,,,,,620.5,631.5,4164.687253,295.9023592,2116.95417
,,,,,,,,,,,,,,,621,632,4177.21519,296.8257951,2123.589964
,,,,,,,,,,,,,,,621.5,632.5,4189.72332,297.749231,2130.225758
,,,,,,,,,,,,,,,622,633,4202.21169,298.6726669,2136.861552
,,,,,,,,,,,,,,,622.5,633.5,4214.680347,299.5961028,2143.497346
,,,,,,,,,,,,,,,623,634,4227.129338,300.5195387,2150.13314
,,,,,,,,,,,,,,,623.5,634.5,4239.558708,301.4429746,2156.768934
,,,,,,,,,,,,,,,624,635,4251.968504,302.3664105,2163.404728
,,,,,,,,,,,,,,,624.5,635.5,4264.358773,303.2898464,2170.040522
,,,,,,,,,,,,,,,625,636,4276.72956,304.2132823,2176.676316
,,,,,,,,,,,,,,,625.5,636.5,4289.080911,305.1367182,2183.31211
,,,,,,,,,,,,,,,626,637,4301.412873,306.0601541,2189.947904
,,,,,,,,,,,,,,,626.5,637.5,4313.72549,306.9835899,2196.583698
,,,,,,,,,,,,,,,627,638,4326.018809,307.9070258,2203.219492
,,,,,,,,,,,,,,,627.5,638.5,4338.292874,308.8304617,2209.855286
,,,,,,,,,,,,,,,628,639,4350.547731,309.7538976,2216.49108
,,,,,,,,,,,,,,,628.5,639.5,4362.783425,310.6773335,2223.126874
,,,,,,,,,,,,,,,629,640,4375,311.6007694,2229.762668
,,,,,,,,,,,,,,,629.5,640.5,4387.197502,312.5242053,2236.398462
,,,,,,,,,,,,,,,630,641,4399.375975,313.4476412,2243.034256
,,,,,,,,,,,,,,,630.5,641.5,4411.535464,314.3710771,2249.67005
,,,,,,,,,,,,,,,631,642,4423.676012,315.294513,2256.305844
,,,,,,,,,,,,,,,631.5,642.5,4435.797665,316.2179489,2262.941638
,,,,,,,,,,,,,,,632,643,4447.900467,317.1413848,2269.577432
,,,,,,,,,,,,,,,632.5,643.5,4459.98446,318.0648207,2276.213226
,,,,,,,,,,,,,,,633,644,4472.049689,318.9882566,2282.84902
,,,,,,,,,,,,,,,633.5,644.5,4484.096199,319.9116925,2289.484814
,,,,,,,,,,,,,,,634,645,4496.124031,320.8351284,2296.120608
,,,,,,,,,,,,,,,634.5,645.5,4508.13323,321.7585643,2302.756402
,,,,,,,,,,,,,,,635,646,4520.123839,322.6820002,2309.392196
,,,,,,,,,,,,,,,635.5,646.5,4532.095901,323.605436,2316.02799
,,,,,,,,,,,,,,,636,647,4544.049459,324.5288719,2322.663784
,,,,,,,,,,,,,,,636.5,647.5,4555.984556,325.4523078,2329.299578
,,,,,,,,,,,,,,,637,648,4567.901235,326.3757437,2335.935372
,,,,,,,,,,,,,,,637.5,648.5,4579.799537,327.2991796,2342.571166
,,,,,,,,,,,,,,,638,649,4591.679507,328.2226155,2349.20696
,,,,,,,,,,,,,,,638.5,649.5,4603.541186,329.1460514,2355.842754
,,,,,,,,,,,,,,,639,650,4615.384615,330.0694873,2362.478548
,,,,,,,,,,,,,,,639.5,650.5,4627.209839,330.9929232,2369.114342
,,,,,,,,,,,,,,,640,651,4639.016897,331.9163591,2375.750136
,,,,,,,,,,,,,,,640.5,651.5,4650.805833,332.839795,2382.38593
,,,,,,,,,,,,,,,641,652,4662.576687,333.7632309,2389.021724
,,,,,,,,,,,,,,,641.5,652.5,4674.329502,334.6866668,2395.657518
,,,,,,,,,,,,,,,642,653,4686.064319,335.6101027,2402.293312
,,,,,,,,,,,,,,,642.5,653.5,4697.781178,336.5335386,2408.929106
,,,,,,,,,,,,,,,643,654,4709.480122,337.4569745,2415.5649
,,,,,,,,,,,,,,,643.5,654.5,4721.161192,338.3804104,2422.200694
,,,,,,,,,,,,,,,644,655,4732.824427,339.3038463,2428.836488
,,,,,,,,,,,,,,,644.5,655.5,4744.46987,340.2272821,2435.472282
,,,,,,,,,,,,,,,645,656,4756.097561,341.150718,2442.108076
,,,,,,,,,,,,,,,645.5,656.5,4767.70754,342.0741539,2448.74387
,,,,,,,,,,,,,,,646,657,4779.299848,342.9975898,2455.379664
,,,,,,,,,,,,,,,646.5,657.5,4790.874525,343.9210257,2462.015458
,,,,,,,,,,,,,,,647,658,4802.431611,344.8444616,2468.651252
,,,,,,,,,,,,,,,647.5,658.5,4813.971147,345.7678975,2475.287046
,,,,,,,,,,,,,,,648,659,4825.493171,346.6913334,2481.92284
,,,,,,,,,,,,,,,648.5,659.5,4836.997726,347.6147693,2488.558634
,,,,,,,,,,,,,,,649,660,4848.484848,348.5382052,2495.194428
,,,,,,,,,,,,,,,649.5,660.5,4859.95458,349.4616411,2501.830222
,,,,,,,,,,,,,,,650,661,4871.406959,350.385077,2508.466016
,,,,,,,,,,,,,,,650.5,661.5,4882.842026,351.3085129,2515.10181
,,,,,,,,,,,,,,,651,662,4894.259819,352.2319488,2521.737604
,,,,,,,,,,,,,,,651.5,662.5,4905.660377,353.1553847,2528.373398
,,,,,,,,,,,,,,,652,663,4917.043741,354.0788206,2535.009192
,,,,,,,,,,,,,,,652.5,663.5,4928.409947,355.0022565,2541.644986
,,,,,,,,,,,,,,,653,664,4939.759036,355.9256923,2548.28078
,,,,,,,,,,,,,,,653.5,664.5,4951.091046,356.8491282,2554.916574
,,,,,,,,,,,,,,,654,665,4962.406015,357.7725641,2561.552368