comp(1),comp_corrected(1),raman_shift(1),vidro(ex 350 5-5),plastico(ex 350 5-5),comp(2),comp_corrected(2),raman_shift(2),vidro(ex 400 5-5),plastico(ex 400 5-5),comp(3),comp_corrected(3),raman_shift(3),vidro(ex 450 10-10),plastico(ex 450 10-10),comp(4),comp_corrected(4),raman_shift(4),vidro(ex 500 10-10),plastico(ex 500 10-10)
250,261,-9742.747674,0.338,0.687,300,311,-13314.17625,0.273,0.609,350,361,-16091.95402,0.592,1.184,450,461,-18314.17625,0.248,1.097
250.5,261.5,-9669.489211,0.2973,0.6348,300.5,311.5,-13240.91778,0.3434,0.6044,350.5,361.5,-16018.69556,0.6208,1.2119,450.5,461.5,-18240.91778,0.2333,1.0889
251,262,-9596.51036,0.3536,0.633,301,312,-13167.93893,0.3334,0.6007,351,362,-15945.71671,0.6538,1.2738,451,462,-18167.93893,0.2328,1.0983
251.5,262.5,-9523.809524,0.3847,0.6548,301.5,312.5,-13095.2381,0.331,0.5931,351.5,362.5,-15873.01587,0.6412,1.2791,451.5,462.5,-18095.2381,0.2337,1.1056
252,263,-9451.385117,0.4146,0.6648,302,313,-13022.81369,0.3412,0.5727,352,363,-15800.59147,0.6605,1.283,452,463,-18022.81369,0.2366,1.1115
252.5,263.5,-9379.235565,0.4259,0.6757,302.5,313.5,-12950.66414,0.3628,0.553,352.5,363.5,-15728.44191,0.669,1.2954,452.5,463.5,-17950.66414,0.2365,1.1163
253,264,-9307.359307,0.3965,0.6944,303,314,-12878.78788,0.336,0.5491,353,364,-15656.56566,0.6738,1.3124,453,464,-17878.78788,0.2366,1.1206
253.5,264.5,-9235.754793,0.3744,0.7188,303.5,314.5,-12807.18336,0.3319,0.5554,353.5,364.5,-15584.96114,0.6782,1.3189,453.5,464.5,-17807.18336,0.2371,1.1265
254,265,-9164.420485,0.3023,0.7121,304,315,-12735.84906,0.3239,0.5617,354,365,-15513.62683,0.6824,1.3266,454,465,-17735.84906,0.238,1.1325
254.5,265.5,-9093.354856,0.2649,0.6994,304.5,315.5,-12664.78343,0.2787,0.5761,354.5,365.5,-15442.56121,0.6891,1.3348,454.5,465.5,-17664.78343,0.2387,1.1389
255,266,-9022.556391,0.2785,0.6903,305,316,-12593.98496,0.2323,0.5929,355,366,-15371.76274,0.6939,1.3326,455,466,-17593.98496,0.2401,1.1445
255.5,266.5,-8952.023586,0.3084,0.6934,305.5,316.5,-12523.45216,0.2137,0.6157,355.5,366.5,-15301.22994,0.6939,1.3255,455.5,466.5,-17523.45216,0.2431,1.1518
256,267,-8881.754949,0.295,0.6953,306,317,-12453.18352,0.1748,0.6314,356,367,-15230.9613,0.6877,1.3292,456,467,-17453.18352,0.2442,1.1572
256.5,267.5,-8811.748999,0.3402,0.7175,306.5,317.5,-12383.17757,0.2098,0.617,356.5,367.5,-15160.95535,0.69,1.3362,456.5,467.5,-17383.17757,0.2455,1.1646
257,268,-8742.004264,0.3691,0.6926,307,318,-12313.43284,0.2401,0.6115,357,368,-15091.21061,0.6944,1.3479,457,468,-17313.43284,0.2462,1.1702
257.5,268.5,-8672.519287,0.2957,0.6719,307.5,318.5,-12243.94786,0.2809,0.6094,357.5,368.5,-15021.72564,0.6986,1.3608,457.5,468.5,-17243.94786,0.2468,1.1769
258,269,-8603.292618,0.2803,0.6568,308,319,-12174.72119,0.3208,0.6083,358,369,-14952.49897,0.6896,1.3764,458,469,-17174.72119,0.2472,1.1824
258.5,269.5,-8534.32282,0.2424,0.6202,308.5,319.5,-12105.75139,0.3645,0.6047,358.5,369.5,-14883.52917,0.6887,1.3777,458.5,469.5,-17105.75139,0.2479,1.1887
259,270,-8465.608466,0.1696,0.6393,309,320,-12037.03704,0.3797,0.6097,359,370,-14814.81481,0.6928,1.3892,459,470,-17037.03704,0.2497,1.1956
259.5,270.5,-8397.148138,0.1667,0.6876,309.5,320.5,-11968.57671,0.3723,0.6204,359.5,370.5,-14746.35449,0.6973,1.3892,459.5,470.5,-16968.57671,0.2527,1.2009
260,271,-8328.940432,0.1225,0.7157,310,321,-11900.369,0.3364,0.5952,360,371,-14678.14678,0.7057,1.3922,460,471,-16900.369,0.2539,1.2073
260.5,271.5,-8260.983952,0.1081,0.7217,310.5,321.5,-11832.41252,0.351,0.5796,360.5,371.5,-14610.1903,0.7028,1.4107,460.5,471.5,-16832.41252,0.2551,1.2121
261,272,-8193.277311,0.0795,0.8317,311,322,-11764.70588,0.2946,0.5663,361,372,-14542.48366,0.7037,1.4337,461,472,-16764.70588,0.2552,1.214
261.5,272.5,-8125.819135,0.1091,0.8933,311.5,322.5,-11697.24771,0.2626,0.5618,361.5,372.5,-14475.02548,0.7056,1.4393,461.5,472.5,-16697.24771,0.2558,1.2201
262,273,-8058.608059,0.1846,0.8686,312,323,-11630.03663,0.2505,0.5568,362,373,-14407.81441,0.7063,1.4468,462,473,-16630.03663,0.2554,1.2287
262.5,273.5,-7991.642727,0.2428,0.7974,312.5,323.5,-11563.0713,0.2248,0.566,362.5,373.5,-14340.84908,0.7057,1.4503,462.5,473.5,-16563.0713,0.2544,1.2394
263,274,-7924.921794,0.3617,0.8117,313,324,-11496.35036,0.224,0.5762,363,374,-14274.12814,0.7066,1.4553,463,474,-16496.35036,0.2546,1.2511
263.5,274.5,-7858.443924,0.4505,0.7939,313.5,324.5,-11429.8725,0.2375,0.5929,363.5,374.5,-14207.65027,0.7059,1.4538,463.5,474.5,-16429.8725,0.2552,1.2656
264,275,-7792.207792,0.5036,0.816,314,325,-11363.63636,0.2526,0.6138,364,375,-14141.41414,0.7081,1.4519,464,475,-16363.63636,0.2559,1.281
264.5,275.5,-7726.212082,0.575,0.8189,314.5,325.5,-11297.64065,0.2858,0.6379,364.5,375.5,-14075.41843,0.7097,1.4358,464.5,475.5,-16297.64065,0.2563,1.3005
265,276,-7660.455487,0.5312,0.7833,315,326,-11231.88406,0.2944,0.6134,365,376,-14009.66184,0.7093,1.4277,465,476,-16231.88406,0.2555,1.3193
265.5,276.5,-7594.936709,0.4898,0.7532,315.5,326.5,-11166.36528,0.3899,0.6085,365.5,376.5,-13944.14306,0.7084,1.4279,465.5,476.5,-16166.36528,0.2552,1.3387
266,277,-7529.654461,0.43,0.7955,316,327,-11101.08303,0.3457,0.6038,366,377,-13878.86081,0.71,1.4349,466,477,-16101.08303,0.2525,1.3588
266.5,277.5,-7464.607465,0.4334,0.7604,316.5,327.5,-11036.03604,0.3321,0.62,366.5,377.5,-13813.81381,0.7105,1.4303,466.5,477.5,-16036.03604,0.2513,1.373
267,278,-7399.79445,0.323,0.713,317,328,-10971.22302,0.3525,0.5954,367,378,-13749.0008,0.7151,1.4278,467,478,-15971.22302,0.2485,1.3779
267.5,278.5,-7335.214157,0.2974,0.6582,317.5,328.5,-10906.64273,0.325,0.5777,367.5,378.5,-13684.42051,0.7143,1.422,467.5,478.5,-15906.64273,0.2452,1.3752
268,279,-7270.865335,0.3001,0.7174,318,329,-10842.29391,0.337,0.5677,368,379,-13620.07168,0.7183,1.4305,468,479,-15842.29391,0.2422,1.3702
268.5,279.5,-7206.746742,0.3105,0.7263,318.5,329.5,-10778.17531,0.3056,0.5651,368.5,379.5,-13555.95309,0.7202,1.4375,468.5,479.5,-15778.17531,0.2407,1.3609
269,280,-7142.857143,0.3032,0.7036,319,330,-10714.28571,0.2639,0.568,369,380,-13492.06349,0.7232,1.4388,469,480,-15714.28571,0.2417,1.3442
269.5,280.5,-7079.195314,0.3224,0.7135,319.5,330.5,-10650.62389,0.248,0.5792,369.5,380.5,-13428.40166,0.7215,1.4253,469.5,480.5,-15650.62389,0.2456,1.3432
270,281,-7015.760041,0.2577,0.6595,320,331,-10587.18861,0.2424,0.5839,370,381,-13364.96639,0.7201,1.4235,470,481,-15587.18861,0.2587,1.3859
270.5,281.5,-6952.550114,0.2314,0.6273,320.5,331.5,-10523.97869,0.2583,0.6002,370.5,381.5,-13301.75646,0.7187,1.4243,470.5,481.5,-15523.97869,0.2871,1.4905
271,282,-6889.564336,0.1816,0.6046,321,332,-10460.99291,0.2169,0.6229,371,382,-13238.77069,0.7245,1.4141,471,482,-15460.99291,0.3315,1.6634
271.5,282.5,-6826.801517,0.2591,0.5744,321.5,332.5,-10398.23009,0.2463,0.6491,371.5,382.5,-13176.00787,0.7198,1.4234,471.5,482.5,-15398.23009,0.4087,1.9812
272,283,-6764.260475,0.1557,0.5618,322,333,-10335.68905,0.3043,0.6315,372,383,-13113.46682,0.7197,1.4386,472,483,-15335.68905,0.5247,2.4719
272.5,283.5,-6701.940035,0.1997,0.572,322.5,333.5,-10273.36861,0.3549,0.6291,372.5,383.5,-13051.14638,0.7201,1.4552,472.5,483.5,-15273.36861,0.6927,3.2171
273,284,-6639.839034,0.1914,0.6026,323,334,-10211.26761,0.41,0.6398,373,384,-12989.04538,0.7215,1.4604,473,484,-15211.26761,0.9306,4.2613
273.5,284.5,-6577.956314,0.2093,0.633,323.5,334.5,-10149.38489,0.3902,0.6412,373.5,384.5,-12927.16266,0.7097,1.4807,473.5,484.5,-15149.38489,1.2477,5.6933
274,285,-6516.290727,0.2308,0.6348,324,335,-10087.7193,0.3736,0.6256,374,385,-12865.49708,0.7109,1.4932,474,485,-15087.7193,1.6683,7.6264
274.5,285.5,-6454.841131,0.2162,0.7068,324.5,335.5,-10026.2697,0.3793,0.6101,374.5,385.5,-12804.04748,0.7083,1.5089,474.5,485.5,-15026.2697,2.2209,10.2211
275,286,-6393.606394,0.1607,0.7085,325,336,-9965.034965,0.3706,0.6006,375,386,-12742.81274,0.7029,1.5371,475,486,-14965.03497,2.9162,13.5693
275.5,286.5,-6332.58539,0.1718,0.7506,325.5,336.5,-9904.013962,0.3819,0.5961,375.5,386.5,-12681.79174,0.6952,1.5515,475.5,486.5,-14904.01396,3.7784,17.8039
276,287,-6271.777003,0.1928,0.7721,326,337,-9843.205575,0.3685,0.5967,376,387,-12620.98335,0.6927,1.5734,476,487,-14843.20557,4.8256,23.0053
276.5,287.5,-6211.180124,0.2766,0.756,326.5,337.5,-9782.608696,0.3817,0.5999,376.5,387.5,-12560.38647,0.6849,1.5855,476.5,487.5,-14782.6087,6.1079,29.4634
277,288,-6150.793651,0.2915,0.7064,327,338,-9722.222222,0.3944,0.606,377,388,-12500,0.6855,1.6035,477,488,-14722.22222,7.6345,37.3406
277.5,288.5,-6090.616489,0.4008,0.6613,327.5,338.5,-9662.045061,0.3937,0.6183,377.5,388.5,-12439.82284,0.6881,1.6054,477.5,488.5,-14662.04506,9.4399,46.8294
278,289,-6030.647553,0.3959,0.6145,328,339,-9602.076125,0.3697,0.6341,378,389,-12379.8539,0.6909,1.6245,478,489,-14602.07612,11.5562,58.0248
278.5,289.5,-5970.885764,0.4451,0.6123,328.5,339.5,-9542.314335,0.3376,0.6371,378.5,389.5,-12320.09211,0.6923,1.63,478.5,489.5,-14542.31434,13.976,71.0141
279,290,-5911.330049,0.4905,0.5658,329,340,-9482.758621,0.3351,0.6285,379,390,-12260.5364,0.7026,1.626,479,490,-14482.75862,16.7029,85.9289
279.5,290.5,-5851.979346,0.4565,0.6675,329.5,340.5,-9423.407917,0.3403,0.64,379.5,390.5,-12201.1857,0.7068,1.6264,479.5,490.5,-14423.40792,19.7618,103.0399
280,291,-5792.832597,0.3758,0.7248,330,341,-9364.261168,0.3219,0.6327,380,391,-12142.03895,0.7131,1.6312,480,491,-14364.26117,23.1638,122.3994
280.5,291.5,-5733.888753,0.3338,0.8253,330.5,341.5,-9305.317324,0.3056,0.5907,380.5,391.5,-12083.0951,0.7233,1.6372,480.5,491.5,-14305.31732,26.8744,143.9283
281,292,-5675.146771,0.3173,0.8968,331,342,-9246.575342,0.276,0.5617,381,392,-12024.35312,0.729,1.6507,481,492,-14246.57534,30.8707,167.4022
281.5,292.5,-5616.605617,0.2368,0.8962,331.5,342.5,-9188.034188,0.3097,0.5436,381.5,392.5,-11965.81197,0.7345,1.6483,481.5,492.5,-14188.03419,35.1567,192.9028
282,293,-5558.264261,0.2246,0.8415,332,343,-9129.692833,0.3225,0.5426,382,393,-11907.47061,0.7414,1.6436,482,493,-14129.69283,39.6688,220.5729
282.5,293.5,-5500.121684,0.1942,0.8006,332.5,343.5,-9071.550256,0.3136,0.5426,382.5,393.5,-11849.32803,0.736,1.6362,482.5,493.5,-14071.55026,44.4102,250.0529
283,294,-5442.176871,0.1039,0.7668,333,344,-9013.605442,0.317,0.5497,383,394,-11791.38322,0.7336,1.6317,483,494,-14013.60544,49.2814,281.2699
283.5,294.5,-5384.428814,0.1414,0.6819,333.5,344.5,-8955.857385,0.3611,0.5681,383.5,394.5,-11733.63516,0.7266,1.6427,483.5,494.5,-13955.85739,54.2612,313.8998
284,295,-5326.876513,0.1765,0.579,334,345,-8898.305085,0.4011,0.5972,384,395,-11676.08286,0.7245,1.6604,484,495,-13898.30508,59.2913,347.581
284.5,295.5,-5269.518975,0.2342,0.5872,334.5,345.5,-8840.947547,0.403,0.6521,384.5,395.5,-11618.72532,0.7208,1.6669,484.5,495.5,-13840.94755,64.2733,382.0634
285,296,-5212.355212,0.225,0.5739,335,346,-8783.783784,0.3664,0.644,385,396,-11561.56156,0.7175,1.6773,485,496,-13783.78378,69.1138,416.7706
285.5,296.5,-5155.384245,0.2215,0.6251,335.5,346.5,-8726.812816,0.3858,0.596,385.5,396.5,-11504.59059,0.7055,1.6742,485.5,496.5,-13726.81282,73.7752,451.1749
286,297,-5098.605099,0.2299,0.6104,336,347,-8670.03367,0.3525,0.5785,386,397,-11447.81145,0.7013,1.6982,486,497,-13670.03367,78.1685,484.6769
286.5,297.5,-5042.016807,0.2036,0.5986,336.5,347.5,-8613.445378,0.3532,0.5889,386.5,397.5,-11391.22316,0.6984,1.7133,486.5,497.5,-13613.44538,82.2435,516.7379
287,298,-4985.618408,0.2583,0.6386,337,348,-8557.04698,0.349,0.5777,387,398,-11334.82476,0.7005,1.7242,487,498,-13557.04698,85.9025,546.9457
287.5,298.5,-4929.40895,0.2637,0.6483,337.5,348.5,-8500.837521,0.3323,0.5468,387.5,398.5,-11278.6153,0.7032,1.7284,487.5,498.5,-13500.83752,89.074,574.7658
288,299,-4873.387482,0.2926,0.6548,338,349,-8444.816054,0.3255,0.5358,388,399,-11222.59383,0.6977,1.7475,488,499,-13444.81605,91.6983,599.5348
288.5,299.5,-4817.553065,0.3511,0.6204,338.5,349.5,-8388.981636,0.3366,0.54,388.5,399.5,-11166.75941,0.6985,1.766,488.5,499.5,-13388.98164,93.6902,621.0628
289,300,-4761.904762,0.3599,0.6243,339,350,-8333.333333,0.353,0.5521,389,400,-11111.11111,0.6987,1.7737,489,500,-13333.33333,95.0055,638.6647
289.5,300.5,-4706.441645,0.4163,0.6486,339.5,350.5,-8277.870216,0.3739,0.5807,389.5,400.5,-11055.64799,0.7026,1.7891,489.5,500.5,-13277.87022,95.6414,652.191
290,301,-4651.162791,0.39,0.694,340,351,-8222.591362,0.3879,0.5819,390,401,-11000.36914,0.6996,1.789,490,501,-13222.59136,95.6439,661.3013
290.5,301.5,-4596.067283,0.3602,0.7464,340.5,351.5,-8167.495854,0.4435,0.6124,390.5,401.5,-10945.27363,0.7052,1.807,490.5,501.5,-13167.49585,94.9309,665.5814
291,302,-4541.15421,0.3354,0.7091,341,352,-8112.582781,0.393,0.6019,391,402,-10890.36056,0.702,1.7838,491,502,-13112.58278,93.5399,664.9199
291.5,302.5,-4486.422668,0.3398,0.6837,341.5,352.5,-8057.85124,0.397,0.6092,391.5,402.5,-10835.62902,0.7056,1.7702,491.5,502.5,-13057.85124,91.5053,659.6066
292,303,-4431.871759,0.3748,0.6677,342,353,-8003.30033,0.3923,0.5834,392,403,-10781.07811,0.705,1.7687,492,503,-13003.30033,88.8758,649.6213
292.5,303.5,-4377.500588,0.4119,0.6014,342.5,353.5,-7948.92916,0.3618,0.5672,392.5,403.5,-10726.70694,0.7014,1.7697,492.5,503.5,-12948.92916,85.7123,635.1823
293,304,-4323.308271,0.4356,0.552,343,354,-7894.736842,0.3396,0.5698,393,404,-10672.51462,0.7079,1.7641,493,504,-12894.73684,82.0256,616.681
293.5,304.5,-4269.293924,0.4441,0.6409,343.5,354.5,-7840.722496,0.3622,0.578,393.5,404.5,-10618.50027,0.7064,1.7699,493.5,504.5,-12840.7225,77.945,594.2302
294,305,-4215.456674,0.4411,0.6484,344,355,-7786.885246,0.402,0.5966,394,405,-10564.66302,0.7069,1.7771,494,505,-12786.88525,73.509,568.2622
294.5,305.5,-4161.795651,0.5311,0.6978,344.5,355.5,-7733.224223,0.4047,0.604,394.5,405.5,-10511.002,0.7095,1.7684,494.5,505.5,-12733.22422,68.8057,539.4419
295,306,-4108.309991,0.4572,0.8643,345,356,-7679.738562,0.4308,0.6229,395,406,-10457.51634,0.708,1.7676,495,506,-12679.73856,63.9189,507.9537
295.5,306.5,-4054.998835,0.4038,0.9887,345.5,356.5,-7626.427406,0.4342,0.6508,395.5,406.5,-10404.20518,0.7046,1.777,495.5,506.5,-12626.42741,58.9406,474.4366
296,307,-4001.861331,0.3363,1.0183,346,357,-7573.289902,0.4344,0.619,396,407,-10351.06768,0.7026,1.8043,496,507,-12573.2899,53.9129,439.2784
296.5,307.5,-3948.896632,0.3073,0.99,346.5,357.5,-7520.325203,0.3996,0.6041,396.5,407.5,-10298.10298,0.6987,1.8206,496.5,507.5,-12520.3252,48.934,403.1889
297,308,-3896.103896,0.2771,0.9545,347,358,-7467.532468,0.3648,0.6161,397,408,-10245.31025,0.6941,1.8349,497,508,-12467.53247,44.0316,366.9912
297.5,308.5,-3843.482288,0.3299,0.9295,347.5,358.5,-7414.910859,0.3511,0.633,397.5,408.5,-10192.68864,0.6847,1.8624,497.5,508.5,-12414.91086,39.274,331.0155
298,309,-3791.030975,0.2782,0.8678,348,359,-7362.459547,0.3702,0.6413,398,409,-10140.23732,0.682,1.8826,498,509,-12362.45955,34.7077,295.7157
298.5,309.5,-3738.749135,0.235,0.8685,348.5,359.5,-7310.177706,0.4069,0.662,398.5,409.5,-10087.95548,0.683,1.9104,498.5,509.5,-12310.17771,30.357,261.6831
299,310,-3686.635945,0.2241,0.8169,349,360,-7258.064516,0.4286,0.6829,399,410,-10035.84229,0.6827,1.9247,499,510,-12258.06452,26.2792,229.0294
299.5,310.5,-3634.690591,0.2587,0.8156,349.5,360.5,-7206.119163,0.4441,0.675,399.5,410.5,-9983.89694,0.6866,1.9446,499.5,510.5,-12206.11916,22.5304,198.4217
300,311,-3582.912265,0.1696,0.9089,350,361,-7154.340836,0.4319,0.6932,400,411,-9932.118614,0.6828,1.9613,500,511,-12154.34084,19.1433,170
300.5,311.5,-3531.300161,0.1471,0.9241,350.5,361.5,-7102.728732,0.4095,0.6667,400.5,411.5,-9880.50651,0.6842,1.9875,500.5,511.5,-12102.72873,16.0456,143.81
301,312,-3479.85348,0.1566,0.8649,351,362,-7051.282051,0.4062,0.6401,401,412,-9829.059829,0.6874,1.9867,501,512,-12051.28205,13.2839,120.0407
301.5,312.5,-3428.571429,0.2041,0.7871,351.5,362.5,-7000,0.3614,0.6374,401.5,412.5,-9777.777778,0.7036,2.0122,501.5,512.5,-12000,10.8519,98.7777
302,313,-3377.453218,0.271,0.7354,352,363,-6948.881789,0.3655,0.6142,402,413,-9726.659567,0.7112,2.0391,502,513,-11948.88179,8.7491,79.9857
302.5,313.5,-3326.498063,0.3511,0.7096,352.5,363.5,-6897.926635,0.391,0.5681,402.5,413.5,-9675.704413,0.7163,2.0542,502.5,513.5,-11897.92663,6.9296,63.8382
303,314,-3275.705187,0.3495,0.6376,353,364,-6847.133758,0.4074,0.5311,403,414,-9624.911536,0.721,2.0656,503,514,-11847.13376,5.3882,49.9787
303.5,314.5,-3225.073813,0.362,0.6057,353.5,364.5,-6796.502385,0.4341,0.4889,403.5,414.5,-9574.280163,0.7241,2.0828,503.5,514.5,-11796.50238,4.114,38.2913
304,315,-3174.603175,0.377,0.6978,354,365,-6746.031746,0.4541,0.5366,404,415,-9523.809524,0.7291,2.103,504,515,-11746.03175,3.0798,28.6725
304.5,315.5,-3124.292506,0.4113,0.7498,354.5,365.5,-6695.721078,0.4881,0.5973,404.5,415.5,-9473.498855,0.7287,2.1099,504.5,515.5,-11695.72108,2.2686,20.9839
305,316,-3074.141049,0.4121,0.8192,355,366,-6645.56962,0.4471,0.646,405,416,-9423.347398,0.7251,2.1176,505,516,-11645.56962,1.6312,14.8595
305.5,316.5,-3024.148048,0.3564,0.8573,355.5,366.5,-6595.576619,0.4706,0.604,405.5,416.5,-9373.354397,0.7192,2.1279,505.5,516.5,-11595.57662,1.1456,10.2073
306,317,-2974.312753,0.2724,0.8539,356,367,-6545.741325,0.4377,0.7006,406,417,-9323.519103,0.7118,2.1505,506,517,-11545.74132,0.7875,6.682
306.5,317.5,-2924.634421,0.205,0.8576,356.5,367.5,-6496.062992,0.4151,0.7859,406.5,417.5,-9273.84077,0.7084,2.1639,506.5,517.5,-11496.06299,0.5422,4.2255
307,318,-2875.112309,0.2224,0.7807,357,368,-6446.540881,0.416,0.7951,407,418,-9224.318658,0.7054,2.1943,507,518,-11446.54088,0.3703,2.5887
307.5,318.5,-2825.745683,0.1807,0.6399,357.5,368.5,-6397.174254,0.4264,0.7849,407.5,418.5,-9174.952032,0.7007,2.2208,507.5,518.5,-11397.17425,0.2695,1.5198
308,319,-2776.533811,0.1813,0.5947,358,369,-6347.962382,0.4173,0.7627,408,419,-9125.74016,0.7037,2.259,508,519,-11347.96238,0.2046,0.8878
308.5,319.5,-2727.475967,0.2335,0.6748,358.5,369.5,-6298.904538,0.4238,0.7274,408.5,419.5,-9076.682316,0.7029,2.2971,508.5,519.5,-11298.90454,0.1741,0.5965
309,320,-2678.571429,0.2835,0.7432,359,370,-6250,0.4424,0.7401,409,420,-9027.777778,0.6994,2.3158,509,520,-11250,0.1733,0.5389
309.5,320.5,-2629.819478,0.3612,0.8654,359.5,370.5,-6201.24805,0.4572,0.7043,409.5,420.5,-8979.025828,0.7019,2.3464,509.5,520.5,-11201.24805,0.1843,0.6244
310,321,-2581.219404,0.3916,0.9111,360,371,-6152.647975,0.4499,0.6394,410,421,-8930.425753,0.7068,2.3704,510,521,-11152.64798,0.1993,0.7443
310.5,321.5,-2532.770495,0.389,1.018,360.5,371.5,-6104.199067,0.4698,0.5698,410.5,421.5,-8881.976845,0.7082,2.3916,510.5,521.5,-11104.19907,0.2172,0.8769
311,322,-2484.47205,0.3248,1.0757,361,372,-6055.900621,0.4428,0.6214,411,422,-8833.678399,0.7161,2.4172,511,522,-11055.90062,0.2351,0.9922
311.5,322.5,-2436.323367,0.3166,1.1411,361.5,372.5,-6007.751938,0.4568,0.6177,411.5,422.5,-8785.529716,0.7228,2.4437,511.5,522.5,-11007.75194,0.2499,1.0867
312,323,-2388.323751,0.3556,1.0694,362,373,-5959.752322,0.4635,0.6175,412,423,-8737.5301,0.72,2.4852,512,523,-10959.75232,0.2584,1.1466
312.5,323.5,-2340.47251,0.3215,0.9947,362.5,373.5,-5911.901082,0.4842,0.6477,412.5,423.5,-8689.67886,0.7239,2.4999,512.5,523.5,-10911.90108,0.2613,1.1694
313,324,-2292.768959,0.3472,0.966,363,374,-5864.197531,0.4974,0.6766,413,424,-8641.975309,0.7231,2.5446,513,524,-10864.19753,0.2608,1.1714
313.5,324.5,-2245.212415,0.4369,1.0003,363.5,374.5,-5816.640986,0.5095,0.7153,413.5,424.5,-8594.418764,0.7276,2.5648,513.5,524.5,-10816.64099,0.2579,1.1681
314,325,-2197.802198,0.4921,1.0365,364,375,-5769.230769,0.5235,0.6874,414,425,-8547.008547,0.7409,2.593,514,525,-10769.23077,0.2558,1.1587
314.5,325.5,-2150.537634,0.4833,1.0764,364.5,375.5,-5721.966206,0.5191,0.6698,414.5,425.5,-8499.743984,0.7452,2.6044,514.5,525.5,-10721.96621,0.2541,1.1426
315,326,-2103.418054,0.4557,1.123,365,376,-5674.846626,0.4978,0.6544,415,426,-8452.624404,0.7445,2.6034,515,526,-10674.84663,0.2531,1.1263
315.5,326.5,-2056.442792,0.4647,1.1922,365.5,376.5,-5627.871363,0.5075,0.6368,415.5,426.5,-8405.649141,0.7529,2.6062,515.5,526.5,-10627.87136,0.2508,1.1069
316,327,-2009.611184,0.3774,1.1539,366,377,-5581.039755,0.4811,0.5878,416,427,-8358.817533,0.7582,2.6148,516,527,-10581.03976,0.2488,1.0914
316.5,327.5,-1962.922574,0.2968,1.1347,366.5,377.5,-5534.351145,0.4787,0.6008,416.5,427.5,-8312.128923,0.7587,2.6133,516.5,527.5,-10534.35115,0.2469,1.0757
317,328,-1916.376307,0.2182,1.086,367,378,-5487.804878,0.4463,0.6296,417,428,-8265.582656,0.7582,2.6221,517,528,-10487.80488,0.2447,1.058
317.5,328.5,-1869.971733,0.196,1.0902,367.5,378.5,-5441.400304,0.4324,0.6896,417.5,428.5,-8219.178082,0.7579,2.6277,517.5,528.5,-10441.4003,0.2422,1.0437
318,329,-1823.708207,0.2376,1.0937,368,379,-5395.136778,0.4317,0.6731,418,429,-8172.914556,0.7593,2.6602,518,529,-10395.13678,0.2391,1.0265
318.5,329.5,-1777.585086,0.2996,1.1033,368.5,379.5,-5349.013657,0.4377,0.7545,418.5,429.5,-8126.791435,0.7601,2.6295,518.5,529.5,-10349.01366,0.2351,1.0109
319,330,-1731.601732,0.3604,1.1714,369,380,-5303.030303,0.467,0.809,419,430,-8080.808081,0.7538,2.5815,519,530,-10303.0303,0.2313,0.9948
319.5,330.5,-1685.75751,0.4008,1.1631,369.5,380.5,-5257.186082,0.4733,0.8218,419.5,430.5,-8034.963859,0.7455,2.53,519.5,530.5,-10257.18608,0.2278,0.9796
320,331,-1640.051791,0.4376,1.3351,370,381,-5211.480363,0.4837,0.8725,420,431,-7989.25814,0.7216,2.4585,520,531,-10211.48036,0.2246,0.9649
320.5,331.5,-1594.483947,0.5225,1.4199,370.5,381.5,-5165.912519,0.5061,0.8983,420.5,431.5,-7943.690297,0.723,2.5139,520.5,531.5,-10165.91252,0.223,0.9502
321,332,-1549.053356,0.5344,1.3927,371,382,-5120.481928,0.5077,0.8421,421,432,-7898.259705,0.7636,2.7057,521,532,-10120.48193,0.2221,0.9372
321.5,332.5,-1503.759398,0.5352,1.3449,371.5,382.5,-5075.18797,0.5152,0.8873,421.5,432.5,-7852.965748,0.7914,2.807,521.5,532.5,-10075.18797,0.2223,0.9247
322,333,-1458.601459,0.5469,1.3944,372,383,-5030.03003,0.4992,0.8797,422,433,-7807.807808,0.9018,3.0823,522,533,-10030.03003,0.224,0.9134
322.5,333.5,-1413.578925,0.5655,1.4572,372.5,383.5,-4985.007496,0.4951,0.827,422.5,433.5,-7762.785274,1.027,3.5326,522.5,533.5,-9985.007496,0.2261,0.9048
323,334,-1368.691189,0.5894,1.4936,373,384,-4940.11976,0.5277,0.8138,423,434,-7717.897538,1.3943,4.9497,523,534,-9940.11976,0.2285,0.8996
323.5,334.5,-1323.937647,0.5999,1.4408,373.5,384.5,-4895.366218,0.4856,0.9319,423.5,434.5,-7673.143996,1.8327,6.5224,523.5,534.5,-9895.366218,0.2334,0.8939
324,335,-1279.317697,0.6348,1.4547,374,385,-4850.746269,0.472,1.0192,424,435,-7628.524046,2.3055,8.2837,524,535,-9850.746269,0.2363,0.8877
324.5,335.5,-1234.830743,0.5772,1.4584,374.5,385.5,-4806.259314,0.4605,1.084,424.5,435.5,-7584.037092,3.2445,12.0334,524.5,535.5,-9806.259314,0.2368,0.8808
325,336,-1190.47619,0.492,1.4833,375,386,-4761.904762,0.4504,1.2003,425,436,-7539.68254,4.4906,17.401,525,536,-9761.904762,0.235,0.8749
325.5,336.5,-1146.253449,0.474,1.5155,375.5,386.5,-4717.682021,0.4298,1.3439,425.5,436.5,-7495.459799,6.1531,24.3455,525.5,536.5,-9717.682021,0.2298,0.8675
326,337,-1102.161933,0.463,1.5385,376,387,-4673.590504,0.444,1.3676,426,437,-7451.368282,8.0885,32.5176,526,537,-9673.590504,0.22,0.8611
326.5,337.5,-1058.201058,0.4407,1.6036,376.5,387.5,-4629.62963,0.4478,1.3646,426.5,437.5,-7407.407407,10.3525,42.2543,526.5,537.5,-9629.62963,0.2084,0.851
327,338,-1014.370245,0.4476,1.7568,377,388,-4585.798817,0.4095,1.404,427,438,-7363.576594,13.2373,54.9143,527,538,-9585.798817,0.1939,0.8441
327.5,338.5,-970.6689175,0.4657,1.7461,377.5,388.5,-4542.097489,0.463,1.3487,427.5,438.5,-7319.875267,16.7877,70.2857,527.5,538.5,-9542.097489,0.1769,0.8352
328,339,-927.0965023,0.4878,1.7498,378,389,-4498.525074,0.5103,1.3219,428,439,-7276.302852,21.2331,90.0505,528,539,-9498.525074,0.1619,0.8234
328.5,339.5,-883.65243,0.4896,1.605,378.5,389.5,-4455.081001,0.5613,1.7457,428.5,439.5,-7232.858779,26.2297,112.8908,528.5,539.5,-9455.081001,0.1486,0.8113
329,340,-840.3361345,0.5625,1.8933,379,390,-4411.764706,0.6519,2.1112,429,440,-7189.542484,31.5308,137.5819,529,540,-9411.764706,0.1369,0.7988
329.5,340.5,-797.1470527,0.6157,2.3365,379.5,390.5,-4368.575624,0.932,3.4143,429.5,440.5,-7146.353402,37.8758,167.3212,529.5,540.5,-9368.575624,0.1254,0.7862
330,341,-754.0846251,0.5601,3.0381,380,391,-4325.513196,1.5348,5.9174,430,441,-7103.290974,45.2451,203.0516,530,541,-9325.513196,0.1193,0.7767
330.5,341.5,-711.1482953,0.92,4.9064,380.5,391.5,-4282.576867,2.8488,10.962,430.5,441.5,-7060.354645,53.9206,244.4981,530.5,541.5,-9282.576867,0.1146,0.7648
331,342,-668.3375104,1.3514,7.6647,381,392,-4239.766082,4.7821,18.3244,431,442,-7017.54386,63.0565,289.7697,531,542,-9239.766082,0.1119,0.7557
331.5,342.5,-625.6517205,2.1783,13.2961,381.5,392.5,-4197.080292,7.5976,27.593,431.5,442.5,-6974.85807,72.9513,338.558,531.5,542.5,-9197.080292,0.1123,0.7471
332,343,-583.090379,3.2829,20.857,382,393,-4154.51895,11.798,42.879,432,443,-6932.296728,83.6655,393.7852,532,543,-9154.51895,0.1144,0.7397
332.5,343.5,-540.6529424,5.332,33.8279,382.5,393.5,-4112.081514,17.6716,63.7098,432.5,443.5,-6889.859292,94.8077,455.1349,532.5,543.5,-9112.081514,0.1169,0.7322
333,344,-498.3388704,8.7377,55.5699,383,394,-4069.767442,26.4955,96.5324,433,444,-6847.54522,106.9649,520.3949,533,544,-9069.767442,0.1202,0.725
333.5,344.5,-456.147626,13.1249,83.2406,383.5,394.5,-4027.576197,37.8153,134.7353,433.5,444.5,-6805.353975,119.413,586.5293,533.5,544.5,-9027.576197,0.1231,0.7167
334,345,-414.0786749,18.3775,115.0942,384,395,-3985.507246,50.2286,177.6749,434,445,-6763.285024,132.1681,652.3654,534,545,-8985.507246,0.1216,0.7097
334.5,345.5,-372.1314865,25.2151,162.855,384.5,395.5,-3943.560058,64.6977,227.7746,434.5,445.5,-6721.337836,145.1081,716.8466,534.5,545.5,-8943.560058,0.1191,0.702
335,346,-330.3055326,33.7816,220.6411,385,396,-3901.734104,80.327,282.6194,435,446,-6679.511882,157.6183,776.8274,535,546,-8901.734104,0.1149,0.6947
335.5,346.5,-288.6002886,43.48,281.5129,385.5,396.5,-3860.02886,96.5859,339.9001,435.5,446.5,-6637.806638,170.3297,831.0397,535.5,546.5,-8860.02886,0.11,0.6888
336,347,-247.0152326,53.0692,352.3563,386,397,-3818.443804,111.7123,394.5173,436,447,-6596.221582,182.1243,878.4437,536,547,-8818.443804,0.1041,0.6841
336.5,347.5,-205.5498458,63.0281,424.7203,386.5,397.5,-3776.978417,126.338,445.447,436.5,447.5,-6554.756195,193.284,919.0066,536.5,547.5,-8776.978417,0.1025,0.6819
337,348,-164.2036125,72.5619,494.6991,387,398,-3735.632184,138.8358,492.3783,437,448,-6513.409962,203.7832,952.8144,537,548,-8735.632184,0.1008,0.6837
337.5,348.5,-122.9760197,81.7519,561.7792,387.5,398.5,-3694.404591,149.2388,530.7707,437.5,448.5,-6472.182369,213.0701,978.9404,537.5,548.5,-8694.404591,0.1026,0.6859
338,349,-81.86655751,89.3105,620.2542,388,399,-3653.295129,157.5651,560.1796,438,449,-6431.072907,220.9849,998.1778,538,549,-8653.295129,0.1107,0.688
338.5,349.5,-40.87471899,94.5511,663.4178,388.5,399.5,-3612.30329,161.5579,573.9613,438.5,449.5,-6390.081068,227.4734,999.999,538.5,549.5,-8612.30329,0.1198,0.6936
339,350,0,97.2373,689.772,389,400,-3571.428571,160.6376,573.0379,439,450,-6349.206349,232.6589,999.999,539,550,-8571.428571,0.1302,0.7004
339.5,350.5,40.75810067,98.6829,711.2977,389.5,400.5,-3530.670471,155.4388,554.3844,439.5,450.5,-6308.448249,236.7248,999.999,539.5,550.5,-8530.670471,0.1443,0.7044
340,351,81.4000814,97.9502,706.2628,390,401,-3490.02849,146.7455,523.5177,440,451,-6267.806268,239.439,999.999,540,551,-8490.02849,0.1588,0.71
340.5,351.5,121.9264377,93.5444,674.464,390.5,401.5,-3449.502134,135.1259,481.4519,440.5,451.5,-6227.279911,240.3277,999.999,540.5,551.5,-8449.502134,0.1702,0.7105
341,352,162.3376623,86.4997,631.3511,391,402,-3409.090909,120.9791,431.4435,441,452,-6186.868687,239.2257,999.999,541,552,-8409.090909,0.1825,0.7112
341.5,352.5,202.6342452,78.2989,574.403,391.5,402.5,-3368.794326,106.0748,378.0076,441.5,452.5,-6146.572104,237.2118,999.999,541.5,552.5,-8368.794326,0.192,0.7086
342,353,242.8166734,69.0635,506.5109,392,403,-3328.611898,89.4345,319.8579,442,453,-6106.389676,233.4635,999.999,542,553,-8328.611898,0.1988,0.7022
342.5,353.5,282.8854314,59.4638,434.2555,392.5,403.5,-3288.54314,73.8336,263.2648,442.5,453.5,-6066.320918,227.9796,999.999,542.5,553.5,-8288.54314,0.2032,0.6949
343,354,322.8410008,49.5161,361.346,393,404,-3248.587571,59.282,209.7834,443,454,-6026.365348,221.1162,999.999,543,554,-8248.587571,0.2061,0.6868
343.5,354.5,362.6838606,40.3015,294.7466,393.5,404.5,-3208.744711,45.7887,164.3879,443.5,454.5,-5986.522489,212.9514,999.999,543.5,554.5,-8208.744711,0.2057,0.6765
344,355,402.4144869,31.9692,235.7248,394,405,-3169.014085,34.0607,124.0629,444,455,-5946.791862,203.4126,999.999,544,555,-8169.014085,0.2014,0.6648
344.5,355.5,442.0333534,25.1993,187.4992,394.5,405.5,-3129.395218,23.8019,87.0613,444.5,455.5,-5907.172996,192.8444,988.763,544.5,555.5,-8129.395218,0.1942,0.6512
345,356,481.540931,19.0088,140.2252,395,406,-3089.88764,16.3748,60.135,445,456,-5867.665418,181.7813,966.5122,545,556,-8089.88764,0.188,0.6373
345.5,356.5,520.9376878,13.2649,98.7242,395.5,406.5,-3050.490884,10.9624,39.9064,445.5,456.5,-5828.268661,170.2048,936.1017,545.5,556.5,-8050.490884,0.1812,0.6264
346,357,560.2240896,8.8102,67.3424,396,407,-3011.204482,7.2406,26.3046,446,457,-5788.98226,157.6821,897.2839,546,557,-8011.204482,0.173,0.6164
346.5,357.5,599.4005994,5.5424,44.9321,396.5,407.5,-2972.027972,4.572,16.5489,446.5,457.5,-5749.80575,145.2535,852.5794,546.5,557.5,-7972.027972,0.1658,0.6093
347,358,638.4676776,3.2261,26.4016,397,408,-2932.960894,2.3417,8.1273,447,458,-5710.738672,132.6276,800.6932,547,558,-7932.960894,0.1581,0.6038
347.5,358.5,677.425782,1.8266,14.2897,397.5,408.5,-2894.002789,1.3714,4.1816,447.5,458.5,-5671.780567,120.0319,743.1951,547.5,558.5,-7894.002789,0.1533,0.6
348,359,716.2753681,1.0345,6.904,398,409,-2855.153203,0.8522,1.9188,448,459,-5632.930981,107.6427,680.1821,548,559,-7855.153203,0.1492,0.5953
348.5,359.5,755.0168885,0.7241,3.8023,398.5,409.5,-2816.411683,0.6057,1.4707,448.5,459.5,-5594.189461,96.0941,614.6653,548.5,559.5,-7816.411683,0.1458,0.5925
349,360,793.6507937,0.6151,2.1514,399,410,-2777.777778,0.583,1.4265,449,460,-5555.555556,85.0612,547.7076,549,560,-7777.777778,0.1445,0.5896
349.5,360.5,832.1775312,0.6501,1.8872,399.5,410.5,-2739.25104,0.5234,1.2829,449.5,460.5,-5517.028818,74.3999,480.5275,549.5,560.5,-7739.25104,0.1427,0.5844
350,361,870.5975465,0.6457,2.1679,400,411,-2700.831025,0.5373,1.3431,450,461,-5478.608803,64.7376,416.5386,550,561,-7700.831025,0.1413,0.5823
350.5,361.5,908.9112824,0.6895,2.2399,400.5,411.5,-2662.517289,0.5375,1.328,450.5,461.5,-5440.295067,55.6664,357.2187,550.5,561.5,-7662.517289,0.1396,0.5762
351,362,947.1191792,0.732,2.2285,401,412,-2624.309392,0.5782,1.4005,451,462,-5402.08717,47.7368,305.5131,551,562,-7624.309392,0.1386,0.5721
351.5,362.5,985.2216749,0.7257,2.1398,401.5,412.5,-2586.206897,0.5885,1.3746,451.5,462.5,-5363.984674,40.7229,260.2584,551.5,562.5,-7586.206897,0.1375,0.5681
352,363,1023.219205,0.7407,2.0995,402,413,-2548.209366,0.5959,1.4209,452,463,-5325.987144,33.968,217.4979,552,563,-7548.209366,0.1375,0.5637
352.5,363.5,1061.112203,0.74,2.0525,402.5,413.5,-2510.316369,0.5996,1.5208,452.5,463.5,-5288.094146,27.9054,178.4917,552.5,563.5,-7510.316369,0.1362,0.5609
353,364,1098.901099,0.7268,2.0665,403,414,-2472.527473,0.5962,1.5839,453,464,-5250.30525,22.5698,145.1656,553,564,-7472.527473,0.1352,0.5587
353.5,364.5,1136.586322,0.7148,2.0413,403.5,414.5,-2434.84225,0.5546,1.6373,453.5,464.5,-5212.620027,18.2442,117.8542,553.5,564.5,-7434.84225,0.1331,0.5568
354,365,1174.168297,0.7282,2.0675,404,415,-2397.260274,0.5185,1.6856,454,465,-5175.038052,14.3767,93.0177,554,565,-7397.260274,0.1295,0.5557
354.5,365.5,1211.64745,0.7298,2.0925,404.5,415.5,-2359.781122,0.5035,1.455,454.5,465.5,-5137.5589,11.278,72.7061,554.5,565.5,-7359.781122,0.1276,0.5537
355,366,1249.0242,0.6541,2.0845,405,416,-2322.404372,0.4858,1.35,455,466,-5100.182149,8.7803,56.2959,555,566,-7322.404372,0.127,0.5522
355.5,366.5,1286.298967,0.6125,2.0969,405.5,416.5,-2285.129604,0.4845,1.2879,455.5,466.5,-5062.907382,6.5336,41.9047,555.5,566.5,-7285.129604,0.1253,0.5522
356,367,1323.472168,0.6065,2.01,406,417,-2247.956403,0.5188,1.2773,456,467,-5025.734181,4.9151,30.5656,556,567,-7247.956403,0.1243,0.5493
356.5,367.5,1360.544218,0.5587,1.9403,406.5,417.5,-2210.884354,0.529,1.2546,456.5,467.5,-4988.662132,3.7482,22.8389,556.5,567.5,-7210.884354,0.1233,0.5469
357,368,1397.515528,0.5358,1.7915,407,418,-2173.913043,0.5312,1.2022,457,468,-4951.690821,2.7265,15.9748,557,568,-7173.913043,0.1229,0.5443
357.5,368.5,1434.386509,0.5302,1.7444,407.5,418.5,-2137.042062,0.5217,1.2082,457.5,468.5,-4914.81984,2.0003,11.0412,557.5,568.5,-7137.042062,0.1212,0.5432
358,369,1471.157569,0.5493,1.7629,408,419,-2100.271003,0.5499,1.1471,458,469,-4878.04878,1.3832,7.0631,558,569,-7100.271003,0.1207,0.5409
358.5,369.5,1507.829113,0.5855,1.7224,408.5,419.5,-2063.599459,0.5056,1.1464,458.5,469.5,-4841.377237,1.1162,5.0761,558.5,569.5,-7063.599459,0.1209,0.5394
359,370,1544.401544,0.6613,1.7273,409,420,-2027.027027,0.4673,1.1207,459,470,-4804.804805,0.8806,3.3898,559,570,-7027.027027,0.1202,0.539
359.5,370.5,1580.875265,0.6901,1.8837,409.5,420.5,-1990.553306,0.4686,1.1225,459.5,470.5,-4768.331084,0.6608,2.0637,559.5,570.5,-6990.553306,0.1186,0.5379
360,371,1617.250674,0.6634,1.8692,410,421,-1954.177898,0.431,1.1222,460,471,-4731.955675,0.6463,1.9089,560,571,-6954.177898,0.1194,0.5373
360.5,371.5,1653.528168,0.6839,1.8967,410.5,421.5,-1917.900404,0.4257,1.2506,460.5,471.5,-4695.678182,0.5976,1.5901,560.5,571.5,-6917.900404,0.1194,0.5357
361,372,1689.708141,0.6944,1.886,411,422,-1881.72043,0.4022,1.3015,461,472,-4659.498208,0.6169,1.7442,561,572,-6881.72043,0.1205,0.5342
361.5,372.5,1725.790988,0.6551,1.8431,411.5,422.5,-1845.637584,0.381,1.2314,461.5,472.5,-4623.415362,0.6561,1.962,561.5,572.5,-6845.637584,0.1239,0.5335
362,373,1761.777097,0.6501,1.7463,412,423,-1809.651475,0.3683,1.1154,462,473,-4587.429252,0.6736,2.131,562,573,-6809.651475,0.1261,0.5338
362.5,373.5,1797.666858,0.6587,1.8066,412.5,423.5,-1773.761714,0.3941,1.0855,462.5,473.5,-4551.539491,0.6912,2.2765,562.5,573.5,-6773.761714,0.1269,0.5313
363,374,1833.460657,0.6775,1.8728,413,424,-1737.967914,0.4669,1.0867,463,474,-4515.745692,0.6919,2.3863,563,574,-6737.967914,0.1279,0.5296
363.5,374.5,1869.158879,0.6916,1.8505,413.5,424.5,-1702.269693,0.505,1.087,463.5,474.5,-4480.047471,0.7133,2.4764,563.5,574.5,-6702.269693,0.1294,0.5291
364,375,1904.761905,0.7285,1.8657,414,425,-1666.666667,0.5308,1.1192,464,475,-4444.444444,0.723,2.5069,564,575,-6666.666667,0.1327,0.5293
364.5,375.5,1940.270116,0.7608,1.9539,414.5,425.5,-1631.158455,0.5804,1.2308,464.5,475.5,-4408.936233,0.717,2.4659,564.5,575.5,-6631.158455,0.1366,0.5296
365,376,1975.683891,0.7252,1.9018,415,426,-1595.744681,0.6059,1.1929,465,476,-4373.522459,0.72,2.4579,565,576,-6595.744681,0.1402,0.5302
365.5,376.5,2011.003605,0.6883,1.8569,415.5,426.5,-1560.424967,0.6004,1.1484,465.5,476.5,-4338.202745,0.701,2.4201,565.5,576.5,-6560.424967,0.1457,0.531
366,377,2046.229632,0.6592,1.8629,416,427,-1525.198939,0.5928,0.9175,466,477,-4302.976717,0.7023,2.3902,566,577,-6525.198939,0.1517,0.5323
366.5,377.5,2081.362346,0.6528,1.8368,416.5,427.5,-1490.066225,0.5587,0.7807,466.5,477.5,-4267.844003,0.6942,2.3698,566.5,577.5,-6490.066225,0.1563,0.5336
367,378,2116.402116,0.6418,1.8006,417,428,-1455.026455,0.5474,0.6993,467,478,-4232.804233,0.6845,2.3433,567,578,-6455.026455,0.1602,0.5335
367.5,378.5,2151.349311,0.6506,1.8159,417.5,428.5,-1420.07926,0.5033,0.6919,467.5,478.5,-4197.857038,0.6729,2.3136,567.5,578.5,-6420.07926,0.162,0.5335
368,379,2186.204297,0.6616,1.8148,418,429,-1385.224274,0.4915,0.7172,468,479,-4163.002052,0.6709,2.299,568,579,-6385.224274,0.166,0.5303
368.5,379.5,2220.967438,0.6977,1.7847,418.5,429.5,-1350.461133,0.4426,0.7192,468.5,479.5,-4128.238911,0.6631,2.271,568.5,579.5,-6350.461133,0.1699,0.5315
369,380,2255.639098,0.7177,1.7545,419,430,-1315.789474,0.4187,0.7577,469,480,-4093.567251,0.6573,2.2401,569,580,-6315.789474,0.1729,0.5328
369.5,380.5,2290.219636,0.7238,1.7652,419.5,430.5,-1281.208936,0.4129,0.8168,469.5,480.5,-4058.986713,0.6578,2.2199,569.5,580.5,-6281.208936,0.1752,0.5336
370,381,2324.709411,0.6743,1.7893,420,431,-1246.71916,0.4056,0.7561,470,481,-4024.496938,0.6603,2.22,570,581,-6246.71916,0.1801,0.5338
370.5,381.5,2359.108781,0.6627,1.7806,420.5,431.5,-1212.31979,0.368,0.7107,470.5,481.5,-3990.097568,0.6572,2.2075,570.5,581.5,-6212.31979,0.1817,0.5336
371,382,2393.4181,0.6667,1.8367,421,432,-1178.010471,0.3924,0.5595,471,482,-3955.788249,0.6611,2.1953,571,582,-6178.010471,0.1832,0.5318
371.5,382.5,2427.637722,0.6722,1.8529,421.5,432.5,-1143.79085,0.3213,0.5685,471.5,482.5,-3921.568627,0.6631,2.2011,571.5,582.5,-6143.79085,0.1848,0.5319
372,383,2461.767997,0.6894,1.8607,422,433,-1109.660574,0.2956,0.6237,472,483,-3887.438352,0.66,2.2029,572,583,-6109.660574,0.1855,0.5327
372.5,383.5,2495.809275,0.6934,1.7819,422.5,433.5,-1075.619296,0.2487,0.6315,472.5,483.5,-3853.397074,0.6631,2.1999,572.5,583.5,-6075.619296,0.1875,0.5313
373,384,2529.761905,0.6944,1.7684,423,434,-1041.666667,0.2121,0.6293,473,484,-3819.444444,0.6584,2.2018,573,584,-6041.666667,0.1895,0.5309
373.5,384.5,2563.626231,0.7122,1.7968,423.5,434.5,-1007.802341,0.163,0.6724,473.5,484.5,-3785.580118,0.6574,2.189,573.5,584.5,-6007.802341,0.1907,0.5319
374,385,2597.402597,0.7004,1.803,424,435,-974.025974,0.1402,0.7004,474,485,-3751.803752,0.6559,2.1833,574,585,-5974.025974,0.193,0.5329
374.5,385.5,2631.091347,0.6959,1.839,424.5,435.5,-940.3372244,0.1351,0.7568,474.5,485.5,-3718.115002,0.6555,2.1698,574.5,585.5,-5940.337224,0.1938,0.5327
375,386,2664.69282,0.7041,1.886,425,436,-906.7357513,0.1275,0.7819,475,486,-3684.513529,0.6636,2.1662,575,586,-5906.735751,0.1954,0.5334
375.5,386.5,2698.207355,0.7132,1.9559,425.5,436.5,-873.221216,0.1274,0.8842,475.5,486.5,-3650.998994,0.6524,2.1513,575.5,586.5,-5873.221216,0.1982,0.5336
376,387,2731.63529,0.7324,2.041,426,437,-839.7932817,0.1138,0.803,476,487,-3617.571059,0.6471,2.1457,576,587,-5839.793282,0.2,0.5349
376.5,387.5,2764.976959,0.7456,2.0912,426.5,437.5,-806.4516129,0.11,0.7092,476.5,487.5,-3584.229391,0.6415,2.1268,576.5,587.5,-5806.451613,0.2018,0.5339
377,388,2798.232695,0.7004,2.1358,427,438,-773.1958763,0.1298,0.681,477,488,-3550.973654,0.6266,2.1108,577,588,-5773.195876,0.205,0.5311
377.5,388.5,2831.402831,0.7074,2.0956,427.5,438.5,-740.02574,0.1834,0.5022,477.5,488.5,-3517.803518,0.6149,2.0909,577.5,588.5,-5740.02574,0.2077,0.5298
378,389,2864.487697,0.8145,2.127,428,439,-706.940874,0.2525,0.4826,478,489,-3484.718652,0.6138,2.0753,578,589,-5706.940874,0.2115,0.5294
378.5,389.5,2897.487621,0.8941,2.172,428.5,439.5,-673.9409499,0.3229,0.5199,478.5,489.5,-3451.718728,0.6009,2.0412,578.5,589.5,-5673.94095,0.2165,0.531
379,390,2930.40293,0.9413,2.2047,429,440,-641.025641,0.3654,0.6089,479,490,-3418.803419,0.5957,2.0096,579,590,-5641.025641,0.2194,0.5296
379.5,390.5,2963.233949,1.0515,2.265,429.5,440.5,-608.1946223,0.3998,0.6006,479.5,490.5,-3385.9724,0.5849,1.9872,579.5,590.5,-5608.194622,0.2211,0.5295
380,391,2995.981001,1.2316,2.3219,430,441,-575.4475703,0.4312,0.7512,480,491,-3353.225348,0.5748,1.9654,580,591,-5575.44757,0.2246,0.5296
380.5,391.5,3028.644408,1.4359,2.3692,430.5,441.5,-542.7841635,0.417,0.8833,480.5,491.5,-3320.561941,0.5603,1.93,580.5,591.5,-5542.784163,0.225,0.5297
381,392,3061.22449,1.6411,2.4046,431,442,-510.2040816,0.3946,0.8127,481,492,-3287.981859,0.555,1.9036,581,592,-5510.204082,0.2265,0.5304
381.5,392.5,3093.721565,1.7946,2.5086,431.5,442.5,-477.7070064,0.4379,0.7214,481.5,492.5,-3255.484784,0.5423,1.8902,581.5,592.5,-5477.707006,0.228,0.5334
382,393,3126.135951,1.8987,2.4971,432,443,-445.2926209,0.4022,0.7064,482,493,-3223.070399,0.5361,1.8728,582,593,-5445.292621,0.2302,0.5355
382.5,393.5,3158.467962,2.0568,2.6932,432.5,443.5,-412.9606099,0.4431,0.5786,482.5,493.5,-3190.738388,0.5275,1.8566,582.5,593.5,-5412.96061,0.2334,0.5361
383,394,3190.717912,2.2005,2.9046,433,444,-380.7106599,0.4971,0.5954,483,494,-3158.488438,0.5173,1.8388,583,594,-5380.71066,0.2344,0.5359
383.5,394.5,3222.886113,2.22,3.146,433.5,444.5,-348.5424588,0.4788,0.7015,483.5,494.5,-3126.320237,0.5175,1.8181,583.5,594.5,-5348.542459,0.2347,0.5366
384,395,3254.972875,2.2422,3.3824,434,445,-316.4556962,0.4914,0.8265,484,495,-3094.233474,0.5205,1.8078,584,595,-5316.455696,0.2359,0.5382
384.5,395.5,3286.978508,2.3154,3.5974,434.5,445.5,-284.4500632,0.4681,0.7552,484.5,495.5,-3062.227841,0.5172,1.7837,584.5,595.5,-5284.450063,0.2357,0.5405
385,396,3318.903319,2.3076,3.7876,435,446,-252.5252525,0.4542,0.8464,485,496,-3030.30303,0.5218,1.7796,585,596,-5252.525253,0.2349,0.542
385.5,396.5,3350.747613,2.2791,3.7815,435.5,446.5,-220.6809584,0.3865,0.9104,485.5,496.5,-2998.458736,0.5139,1.7621,585.5,596.5,-5220.680958,0.2359,0.5433
386,397,3382.511695,2.236,3.7651,436,447,-188.9168766,0.4124,0.8264,486,497,-2966.694654,0.5096,1.735,586,597,-5188.916877,0.2366,0.545
386.5,397.5,3414.195867,2.1749,3.7327,436.5,447.5,-157.2327044,0.4214,0.8035,486.5,497.5,-2935.010482,0.5052,1.7173,586.5,597.5,-5157.232704,0.2372,0.5457
387,398,3445.800431,2.1438,3.515,437,448,-125.6281407,0.3829,0.8089,487,498,-2903.405918,0.4989,1.697,587,598,-5125.628141,0.2371,0.546
387.5,398.5,3477.325686,2.1013,3.4822,437.5,448.5,-94.10288582,0.3912,0.6752,487.5,498.5,-2871.880664,0.4995,1.6824,587.5,598.5,-5094.102886,0.2361,0.5468
388,399,3508.77193,2.0854,3.3656,438,449,-62.6566416,0.3727,0.6247,488,499,-2840.434419,0.4968,1.6646,588,599,-5062.656642,0.2362,0.5464
388.5,399.5,3540.13946,2.089,3.2805,438.5,449.5,-31.28911139,0.3194,0.6769,488.5,499.5,-2809.066889,0.4932,1.6611,588.5,599.5,-5031.289111,0.2364,0.5444
389,400,3571.428571,2.2104,3.1636,439,450,0,0.3495,0.6821,489,500,-2777.777778,0.4885,1.6706,589,600,-5000,0.235,0.5427
389.5,400.5,3602.639558,2.2154,3.0256,439.5,450.5,31.21098627,0.3171,0.6646,489.5,500.5,-2746.566792,0.475,1.6686,589.5,600.5,-4968.789014,0.2347,0.5412
390,401,3633.772711,2.1142,2.868,440,451,62.34413965,0.3387,0.6625,490,501,-2715.433638,0.4692,1.6684,590,601,-4937.65586,0.2359,0.5416
390.5,401.5,3664.828322,1.9457,2.6335,440.5,451.5,93.39975093,0.3163,0.6943,490.5,501.5,-2684.378027,0.4593,1.6477,590.5,601.5,-4906.600249,0.2361,0.5411
391,402,3695.806681,1.8247,2.5038,441,452,124.3781095,0.4079,0.6889,491,502,-2653.399668,0.4617,1.6459,591,602,-4875.621891,0.2358,0.5414
391.5,402.5,3726.708075,1.7674,2.3815,441.5,452.5,155.2795031,0.4293,0.7164,491.5,502.5,-2622.498275,0.459,1.6468,591.5,602.5,-4844.720497,0.237,0.5412
392,403,3757.53279,1.6808,2.2511,442,453,186.1042184,0.4586,0.7152,492,503,-2591.673559,0.4599,1.6441,592,603,-4813.895782,0.2391,0.5406
392.5,403.5,3788.281112,1.4365,2.2222,442.5,453.5,216.8525403,0.4359,0.7623,492.5,503.5,-2560.925238,0.4498,1.6396,592.5,603.5,-4783.14746,0.2408,0.5418
393,404,3818.953324,1.2924,2.1655,443,454,247.5247525,0.4498,0.8372,493,504,-2530.253025,0.4561,1.6339,593,604,-4752.475248,0.2425,0.5434
393.5,404.5,3849.549709,1.1723,2.1326,443.5,454.5,278.1211372,0.4236,0.9528,493.5,504.5,-2499.656641,0.4524,1.6256,593.5,604.5,-4721.878863,0.2452,0.545
394,405,3880.070547,1.0916,2.0834,444,455,308.6419753,0.399,1.1004,494,505,-2469.135802,0.45,1.6237,594,605,-4691.358025,0.2464,0.5488
394.5,405.5,3910.516118,0.9393,2.0447,444.5,455.5,339.0875462,0.3623,1.1686,494.5,505.5,-2438.690232,0.4447,1.6203,594.5,605.5,-4660.912454,0.2485,0.5479
395,406,3940.8867,0.8266,1.9785,445,456,369.4581281,0.4231,1.1692,495,506,-2408.31965,0.4482,1.6201,595,606,-4630.541872,0.25,0.5476
395.5,406.5,3971.182569,0.7268,1.9324,445.5,456.5,399.7539975,0.4518,1.2374,495.5,506.5,-2378.02378,0.4505,1.6168,595.5,606.5,-4600.246002,0.2516,0.5475
396,407,4001.404001,0.714,1.9194,446,457,429.97543,0.5978,1.2369,496,507,-2347.802348,0.4519,1.5962,596,607,-4570.02457,0.2523,0.5474
396.5,407.5,4031.551271,0.7216,1.9671,446.5,457.5,460.1226994,0.7361,1.2231,496.5,507.5,-2317.655078,0.4413,1.5856,596.5,607.5,-4539.877301,0.2491,0.5468
397,408,4061.62465,0.6854,2.0128,447,458,490.1960784,0.8557,1.181,497,508,-2287.581699,0.4449,1.5729,597,608,-4509.803922,0.2448,0.541
397.5,408.5,4091.62441,0.5471,2.111,447.5,458.5,520.1958384,0.9489,1.3155,497.5,508.5,-2257.581939,0.4404,1.5709,597.5,608.5,-4479.804162,0.2399,0.5364
398,409,4121.550821,0.6464,2.0936,448,459,550.1222494,1.1213,1.3867,498,509,-2227.655528,0.4359,1.5716,598,609,-4449.877751,0.2352,0.5325
398.5,409.5,4151.404151,0.7002,2.0909,448.5,459.5,579.97558,1.1438,1.4724,498.5,509.5,-2197.802198,0.4379,1.5866,598.5,609.5,-4420.02442,0.2274,0.5224
399,410,4181.184669,0.7721,2.109,449,460,609.7560976,1.1832,1.5063,499,510,-2168.02168,0.4317,1.5846,599,610,-4390.243902,0.2188,0.5138
399.5,410.5,4210.89264,0.7957,2.1686,449.5,460.5,639.4640682,1.1878,1.4792,499.5,510.5,-2138.31371,0.4356,1.5656,599.5,610.5,-4360.535932,0.2123,0.505
400,411,4240.528328,0.8239,2.1232,450,461,669.0997567,1.2048,1.5093,500,511,-2108.678021,0.4298,1.5641,600,611,-4330.900243,0.2057,0.4985
400.5,411.5,4270.091998,0.8463,2.1091,450.5,461.5,698.6634265,1.2136,1.5957,500.5,511.5,-2079.114351,0.4377,1.5316,600.5,611.5,-4301.336574,0.1979,0.4905
401,412,4299.583911,0.8001,2.08,451,462,728.1553398,1.2147,1.5812,501,512,-2049.622438,0.4492,1.5513,601,612,-4271.84466,0.1906,0.4841
401.5,412.5,4329.004329,0.7374,2.0842,451.5,462.5,757.5757576,1.2292,1.6203,501.5,512.5,-2020.20202,0.4507,1.545,601.5,612.5,-4242.424242,0.1878,0.4774
402,413,4358.353511,0.7127,2.066,452,463,786.9249395,1.1154,1.5526,502,513,-1990.852838,0.4535,1.5353,602,613,-4213.075061,0.1846,0.4698
402.5,413.5,4387.631715,0.6638,2.0883,452.5,463.5,816.2031439,1.1766,1.6001,502.5,513.5,-1961.574634,0.4596,1.5262,602.5,613.5,-4183.796856,0.1815,0.4653
403,414,4416.839199,0.6945,2.0651,453,464,845.410628,1.1538,1.5998,503,514,-1932.36715,0.4725,1.5274,603,614,-4154.589372,0.1799,0.4594
403.5,414.5,4445.976219,0.6925,2.082,453.5,464.5,874.5476478,1.0508,1.5472,503.5,514.5,-1903.23013,0.4718,1.5254,603.5,614.5,-4125.452352,0.1793,0.4515
404,415,4475.043029,0.7889,2.131,454,465,903.6144578,1.0132,1.4766,504,515,-1874.16332,0.4723,1.5341,604,615,-4096.385542,0.1789,0.4458
404.5,415.5,4504.039883,0.8617,2.2598,454.5,465.5,932.6113117,1.0159,1.4071,504.5,515.5,-1845.166466,0.4904,1.5375,604.5,615.5,-4067.388688,0.1802,0.4375
405,416,4532.967033,0.8713,2.1662,455,466,961.5384615,0.9214,1.3852,505,516,-1816.239316,0.5134,1.5279,605,616,-4038.461538,0.1791,0.4325
405.5,416.5,4561.82473,0.8516,2.1329,455.5,466.5,990.3961585,0.917,1.3912,505.5,516.5,-1787.381619,0.5255,1.537,605.5,616.5,-4009.603842,0.177,0.4241
406,417,4590.613224,0.8223,2.0876,456,467,1019.184652,0.819,1.3988,506,517,-1758.593125,0.5413,1.5317,606,617,-3980.815348,0.175,0.4146
406.5,417.5,4619.332763,0.8532,2.0837,456.5,467.5,1047.904192,0.7548,1.4451,506.5,517.5,-1729.873586,0.5521,1.5177,606.5,617.5,-3952.095808,0.1681,0.4025
407,418,4647.983595,0.9056,2.0849,457,468,1076.555024,0.6292,1.3275,507,518,-1701.222754,0.5761,1.5237,607,618,-3923.444976,0.1594,0.3886
407.5,418.5,4676.565967,0.829,2.1178,457.5,468.5,1105.137395,0.6609,1.25,507.5,518.5,-1672.640382,0.5976,1.5282,607.5,618.5,-3894.862605,0.147,0.3787
408,419,4705.080123,0.7798,2.0937,458,469,1133.651551,0.5605,1.2087,508,519,-1644.126226,0.6242,1.5493,608,619,-3866.348449,0.1347,0.3667
408.5,419.5,4733.526307,0.7141,2.1051,458.5,469.5,1162.097735,0.4667,1.0009,508.5,519.5,-1615.680042,0.6523,1.5514,608.5,619.5,-3837.902265,0.1189,0.3516
409,420,4761.904762,0.7981,2.1205,459,470,1190.47619,0.4709,0.8447,509,520,-1587.301587,0.672,1.5532,609,620,-3809.52381,0.1046,0.3415
409.5,420.5,4790.21573,0.8769,2.1825,459.5,470.5,1218.787158,0.4768,0.7294,509.5,520.5,-1558.99062,0.6914,1.5651,609.5,620.5,-3781.212842,0.0906,0.3327
410,421,4818.45945,0.7977,2.0492,460,471,1247.030879,0.3851,0.6613,510,521,-1530.746899,0.6966,1.5806,610,621,-3752.969121,0.0764,0.3257
410.5,421.5,4846.636163,0.7396,2.0322,460.5,471.5,1275.207592,0.4641,0.5977,510.5,521.5,-1502.570186,0.727,1.5932,610.5,621.5,-3724.792408,0.0624,0.3191
411,422,4874.746107,0.7367,2.0407,461,472,1303.317536,0.3998,0.6348,511,522,-1474.460242,0.7497,1.6255,611,622,-3696.682464,0.051,0.314
411.5,422.5,4902.789518,0.7565,2.0922,461.5,472.5,1331.360947,0.3775,0.697,511.5,522.5,-1446.416831,0.7622,1.6313,611.5,622.5,-3668.639053,0.0422,0.3093
412,423,4930.766633,0.7366,2.1077,462,473,1359.338061,0.3707,0.6463,512,523,-1418.439716,0.7769,1.6561,612,623,-3640.661939,0.0326,0.3065
412.5,423.5,4958.677686,0.6465,2.1571,462.5,473.5,1387.249115,0.3797,0.6072,512.5,523.5,-1390.528663,0.7892,1.6745,612.5,623.5,-3612.750885,0.0251,0.3062
413,424,4986.522911,0.627,2.1791,463,474,1415.09434,0.385,0.6232,513,524,-1362.683438,0.8086,1.7003,613,624,-3584.90566,0.0191,0.3043
413.5,424.5,5014.302541,0.6113,2.1722,463.5,474.5,1442.873969,0.3672,0.4648,513.5,524.5,-1334.903808,0.8217,1.7071,613.5,624.5,-3557.126031,0.0161,0.3035
414,425,5042.016807,0.6712,2.1399,464,475,1470.588235,0.3814,0.4385,514,525,-1307.189542,0.8378,1.7269,614,625,-3529.411765,0.0153,0.3054
414.5,425.5,5069.665939,0.7283,2.141,464.5,475.5,1498.237368,0.3459,0.4614,514.5,525.5,-1279.54041,0.861,1.7444,614.5,625.5,-3501.762632,0.0148,0.3056
415,426,5097.250168,0.6785,2.041,465,476,1525.821596,0.3741,0.4404,515,526,-1251.956182,0.8807,1.7553,615,626,-3474.178404,0.0145,0.3058
415.5,426.5,5124.76972,0.7796,1.9736,465.5,476.5,1553.341149,0.4078,0.4539,515.5,526.5,-1224.436629,0.8951,1.7785,615.5,626.5,-3446.658851,0.0154,0.3049
416,427,5152.224824,0.8858,1.9552,466,477,1580.796253,0.3852,0.5402,516,527,-1196.981525,0.9127,1.7986,616,627,-3419.203747,0.0169,0.3038
416.5,427.5,5179.615706,0.8953,1.9339,466.5,477.5,1608.187135,0.4179,0.536,516.5,527.5,-1169.590643,0.9262,1.8004,616.5,627.5,-3391.812865,0.0163,0.3028
417,428,5206.94259,0.8764,1.8799,467,478,1635.514019,0.4782,0.6285,517,528,-1142.263759,0.9392,1.8249,617,628,-3364.485981,0.0158,0.3023
417.5,428.5,5234.205701,0.8755,1.9338,467.5,478.5,1662.77713,0.5067,0.644,517.5,528.5,-1115.000648,0.9525,1.8383,617.5,628.5,-3337.22287,0.015,0.3011
418,429,5261.405261,0.8079,1.998,468,479,1689.97669,0.5164,0.6897,518,529,-1087.801088,0.956,1.8556,618,629,-3310.02331,0.0159,0.3004
418.5,429.5,5288.541493,0.7809,1.9719,468.5,479.5,1717.112922,0.495,0.6558,518.5,529.5,-1060.664856,0.9668,1.8437,618.5,629.5,-3282.887078,0.0163,0.3006
419,430,5315.614618,0.7303,1.9699,469,480,1744.186047,0.4404,0.6104,519,530,-1033.591731,0.9623,1.8494,619,630,-3255.813953,0.0174,0.2998
419.5,430.5,5342.624855,0.7591,2.002,469.5,480.5,1771.196283,0.4112,0.6097,519.5,530.5,-1006.581494,0.9697,1.8559,619.5,630.5,-3228.803717,0.0181,0.3001
420,431,5369.572423,0.7478,1.9903,470,481,1798.143852,0.3812,0.5346,520,531,-979.6339263,0.9662,1.8508,620,631,-3201.856148,0.0191,0.2996
420.5,431.5,5396.45754,0.7985,1.94,470.5,481.5,1825.028969,0.312,0.4961,520.5,531.5,-952.7488091,0.9636,1.8453,620.5,631.5,-3174.971031,0.0195,0.2987
421,432,5423.280423,0.7267,1.9311,471,482,1851.851852,0.2794,0.4703,521,532,-925.9259259,0.9652,1.8291,621,632,-3148.148148,0.0204,0.2984
421.5,432.5,5450.041288,0.6313,1.8917,471.5,482.5,1878.612717,0.2386,0.3616,521.5,532.5,-899.165061,0.9531,1.8186,621.5,632.5,-3121.387283,0.0208,0.2993
422,433,5476.74035,0.492,1.8809,472,483,1905.311778,0.2812,0.4042,522,533,-872.4659995,0.9442,1.8135,622,633,-3094.688222,0.0211,0.3009
422.5,433.5,5503.377822,0.4264,1.8644,472.5,483.5,1931.94925,0.3027,0.383,522.5,533.5,-845.8285275,0.9337,1.7939,622.5,633.5,-3068.05075,0.0212,0.3016
423,434,5529.953917,0.4123,1.7933,473,484,1958.525346,0.32,0.3847,523,534,-819.2524322,0.9334,1.7953,623,634,-3041.474654,0.0214,0.3034
423.5,434.5,5556.468848,0.3965,1.7167,473.5,484.5,1985.040276,0.3598,0.2895,523.5,534.5,-792.7375016,0.9118,1.7802,623.5,634.5,-3014.959724,0.0229,0.3054
424,435,5582.922824,0.4342,1.6535,474,485,2011.494253,0.357,0.2634,524,535,-766.2835249,0.9002,1.7857,624,635,-2988.505747,0.0244,0.3073
424.5,435.5,5609.316057,0.5379,1.6605,474.5,485.5,2037.887486,0.359,0.3146,524.5,535.5,-739.8902921,0.8821,1.7934,624.5,635.5,-2962.112514,0.0249,0.3087
425,436,5635.648755,0.5497,1.6712,475,486,2064.220183,0.3274,0.3078,525,536,-713.5575943,0.8779,1.78,625,636,-2935.779817,0.0273,0.3106
425.5,436.5,5661.921126,0.4782,1.6366,475.5,486.5,2090.492554,0.2989,0.3054,525.5,536.5,-687.2852234,0.8662,1.7709,625.5,636.5,-2909.507446,0.0288,0.3123
426,437,5688.133377,0.3849,1.6148,476,487,2116.704805,0.2488,0.3038,526,537,-661.0729723,0.8435,1.7661,626,637,-2883.295195,0.0301,0.3143
426.5,437.5,5714.285714,0.2891,1.6172,476.5,487.5,2142.857143,0.1942,0.2492,526.5,537.5,-634.9206349,0.8274,1.7395,626.5,637.5,-2857.142857,0.0323,0.316
427,438,5740.378343,0.1776,1.6475,477,488,2168.949772,0.1848,0.2447,527,538,-608.8280061,0.8132,1.7276,627,638,-2831.050228,0.0354,0.3175
427.5,438.5,5766.411468,0.0962,1.6232,477.5,488.5,2194.982896,0.1606,0.2071,527.5,538.5,-582.7948815,0.795,1.7017,627.5,638.5,-2805.017104,0.0372,0.3182
428,439,5792.385291,0.2251,1.6529,478,489,2220.95672,0.1683,0.2095,528,539,-556.821058,0.781,1.6746,628,639,-2779.04328,0.0388,0.3197
428.5,439.5,5818.300016,0.3278,1.7562,478.5,489.5,2246.871445,0.167,0.1576,528.5,539.5,-530.906333,0.7706,1.6302,628.5,639.5,-2753.128555,0.0405,0.3216
429,440,5844.155844,0.4862,1.8413,479,490,2272.727273,0.1804,0.2188,529,540,-505.0505051,0.7464,1.6027,629,640,-2727.272727,0.043,0.3231
429.5,440.5,5869.952976,0.5654,1.9862,479.5,490.5,2298.524404,0.1984,0.2731,529.5,540.5,-479.2533737,0.7207,1.567,629.5,640.5,-2701.475596,0.0445,0.3247
430,441,5895.69161,0.6212,2.0869,480,491,2324.263039,0.2262,0.275,530,541,-453.5147392,0.6931,1.5401,630,641,-2675.736961,0.045,0.3263
430.5,441.5,5921.371946,0.6603,2.1213,480.5,491.5,2349.943375,0.2827,0.2857,530.5,541.5,-427.8344029,0.6754,1.4975,630.5,641.5,-2650.056625,0.0464,0.3278
431,442,5946.994182,0.7098,2.1351,481,492,2375.565611,0.2625,0.272,531,542,-402.2121669,0.6538,1.4495,631,642,-2624.434389,0.0473,0.3289
431.5,442.5,5972.558515,0.7088,2.1231,481.5,492.5,2401.129944,0.2539,0.294,531.5,542.5,-376.6478343,0.6245,1.4194,631.5,642.5,-2598.870056,0.0471,0.3317
432,443,5998.06514,0.7181,2.0364,482,493,2426.636569,0.2275,0.3083,532,543,-351.1412089,0.5924,1.385,632,643,-2573.363431,0.0465,0.3334
432.5,443.5,6023.514254,0.6218,1.9463,482.5,493.5,2452.085682,0.2218,0.2827,532.5,543.5,-325.6920957,0.5658,1.3524,632.5,643.5,-2547.914318,0.0463,0.3346
433,444,6048.906049,0.6889,1.8758,483,494,2477.477477,0.1902,0.352,533,544,-300.3003003,0.5418,1.3324,633,644,-2522.522523,0.0469,0.3351
433.5,444.5,6074.24072,0.7022,1.8753,483.5,494.5,2502.812148,0.1646,0.3283,533.5,544.5,-274.9656293,0.5148,1.3039,633.5,644.5,-2497.187852,0.0473,0.3349
434,445,6099.518459,0.7267,1.7922,484,495,2528.089888,0.1789,0.3619,534,545,-249.6878901,0.4915,1.296,634,645,-2471.910112,0.0475,0.3351
434.5,445.5,6124.739458,0.7572,1.7946,484.5,495.5,2553.310887,0.1827,0.3834,534.5,545.5,-224.4668911,0.4695,1.2945,634.5,645.5,-2446.689113,0.0468,0.3359
435,446,6149.903908,0.7876,1.7264,485,496,2578.475336,0.2114,0.3695,535,546,-199.3024415,0.4551,1.2657,635,646,-2421.524664,0.047,0.3363
435.5,446.5,6175.011998,0.7669,1.6947,485.5,496.5,2603.583427,0.253,0.3571,535.5,546.5,-174.1943511,0.4382,1.2585,635.5,646.5,-2396.416573,0.0456,0.3363
436,447,6200.063918,0.7144,1.7472,486,497,2628.635347,0.2657,0.3438,536,547,-149.142431,0.4155,1.2499,636,647,-2371.364653,0.0448,0.3371
436.5,447.5,6225.059856,0.6586,1.7863,486.5,497.5,2653.631285,0.2652,0.3463,536.5,547.5,-124.1464929,0.4143,1.2387,636.5,647.5,-2346.368715,0.0457,0.3376
437,448,6250,0.659,1.7516,487,498,2678.571429,0.2561,0.3619,537,548,-99.20634921,0.4079,1.233,637,648,-2321.428571,0.0463,0.3371
437.5,448.5,6274.884536,0.5711,1.849,487.5,498.5,2703.455964,0.2395,0.3868,537.5,548.5,-74.32181345,0.3993,1.2238,637.5,648.5,-2296.544036,0.0458,0.3368
438,449,6299.713649,0.5022,1.9418,488,499,2728.285078,0.1803,0.4285,538,549,-49.49269983,0.3925,1.2211,638,649,-2271.714922,0.0459,0.3387
438.5,449.5,6324.487526,0.4328,1.9567,488.5,499.5,2753.058954,0.2206,0.4121,538.5,549.5,-24.71882338,0.384,1.2152,638.5,649.5,-2246.941046,0.0462,0.3408
439,450,6349.206349,0.4416,1.845,489,500,2777.777778,0.2252,0.4035,539,550,0,0.3711,1.2254,639,650,-2222.222222,0.0459,0.3421
439.5,450.5,6373.870303,0.4515,1.7815,489.5,500.5,2802.441731,0.2741,0.4061,539.5,550.5,24.66395363,0.3607,1.2266,639.5,650.5,-2197.558269,0.0452,0.343
440,451,6398.479569,0.4687,1.7494,490,501,2827.050998,0.3149,0.4583,540,551,49.27322,0.3588,1.2173,640,651,-2172.949002,0.0451,0.3452
440.5,451.5,6423.03433,0.4323,1.7107,490.5,501.5,2851.605759,0.3916,0.4583,540.5,551.5,73.8279808,0.3497,1.2067,640.5,651.5,-2148.394241,0.0462,0.3471
441,452,6447.534766,0.419,1.7222,491,502,2876.106195,0.4284,0.4692,541,552,98.32841691,0.3299,1.1784,641,652,-2123.893805,0.047,0.3488
441.5,452.5,6471.981058,0.4496,1.7888,491.5,502.5,2900.552486,0.4422,0.4924,541.5,552.5,122.7747084,0.3144,1.1717,641.5,652.5,-2099.447514,0.0479,0.3516
442,453,6496.373384,0.5831,1.8161,492,503,2924.944812,0.4243,0.5696,542,553,147.1670346,0.3008,1.1456,642,653,-2075.055188,0.049,0.3526
442.5,453.5,6520.711923,0.6641,1.8674,492.5,503.5,2949.283352,0.3742,0.5788,542.5,553.5,171.5055739,0.2936,1.1289,642.5,653.5,-2050.716648,0.0503,0.3531
443,454,6544.996853,0.6765,1.9345,493,504,2973.568282,0.2995,0.5399,543,554,195.7905042,0.285,1.1144,643,654,-2026.431718,0.0521,0.3525
443.5,454.5,6569.228351,0.6554,1.9054,493.5,504.5,2997.79978,0.3091,0.5317,543.5,554.5,220.0220022,0.2749,1.0976,643.5,654.5,-2002.20022,0.0527,0.3537
444,455,6593.406593,0.5735,1.8497,494,505,3021.978022,0.3174,0.453,544,555,244.2002442,0.2631,1.1,644,655,-1978.021978,0.0537,0.3571
444.5,455.5,6617.531755,0.482,1.7999,494.5,505.5,3046.103183,0.3512,0.4479,544.5,555.5,268.3254055,0.2572,1.088,644.5,655.5,-1953.896817,0.0541,0.3588
445,456,6641.60401,0.4749,1.7978,495,506,3070.175439,0.3911,0.4767,545,556,292.3976608,0.2506,1.0656,645,656,-1929.824561,0.0542,0.3601
445.5,456.5,6665.623533,0.4683,1.6964,495.5,506.5,3094.194962,0.4528,0.4746,545.5,556.5,316.4171839,0.255,1.0595,645.5,656.5,-1905.805038,0.0556,0.363
446,457,6689.590497,0.4733,1.6477,496,507,3118.161926,0.4346,0.5298,546,557,340.3841478,0.2563,1.0525,646,657,-1881.838074,0.057,0.3652
446.5,457.5,6713.505074,0.5164,1.6864,496.5,507.5,3142.076503,0.4851,0.6095,546.5,557.5,364.298725,0.2557,1.045,646.5,657.5,-1857.923497,0.0582,0.3675
447,458,6737.367436,0.5702,1.6682,497,508,3165.938865,0.4632,0.6816,547,558,388.1610869,0.2556,1.0378,647,658,-1834.061135,0.0596,0.3703
447.5,458.5,6761.177754,0.6027,1.6468,497.5,508.5,3189.749182,0.4229,0.6737,547.5,558.5,411.9714043,0.2576,1.0405,647.5,658.5,-1810.250818,0.0595,0.3722
448,459,6784.936197,0.602,1.6446,498,509,3213.507625,0.3846,0.6743,548,559,435.7298475,0.2579,1.0443,648,659,-1786.492375,0.0599,0.3756
448.5,459.5,6808.642935,0.6051,1.6165,498.5,509.5,3237.214363,0.3699,0.6729,548.5,559.5,459.4365857,0.2488,1.0321,648.5,659.5,-1762.785637,0.0622,0.3808
449,460,6832.298137,0.5951,1.5887,499,510,3260.869565,0.3602,0.6642,549,560,483.0917874,0.249,1.021,649,660,-1739.130435,0.0628,0.385
449.5,460.5,6855.90197,0.6714,1.4268,499.5,510.5,3284.473398,0.3183,0.6391,549.5,560.5,506.6956207,0.2483,0.9921,649.5,660.5,-1715.526602,0.0647,0.3817
450,461,6879.454602,0.765,1.165,500,511,3308.02603,0.33,0.686,550,561,530.2482526,0.25,1.051,650,661,-1691.97397,0.073,0.393