comp(1),comp_corrected(1),raman_shift(1),vidro(5-5),comp(2),comp_corrected(2),raman_shift(2),vidro(5-5),comp(3),comp_corrected(1),raman_shift(3),vidro(10-10),comp(4),comp_corrected(1),raman_shift(4),vidro(10-10)
250,261,-9742.747674,1.634,300,311,-7154.340836,1.046,350,361,-5478.608803,3.034,400,411,-7700.831025,4.129
250.5,261.5,-9669.489211,1.4643,300.5,311.5,-7102.728732,1.0111,350.5,361.5,-5440.295067,3.0466,400.5,411.5,-7662.517289,4.3097
251,262,-9596.51036,1.4491,301,312,-7051.282051,1.003,351,362,-5402.08717,3.0617,401,412,-7624.309392,4.345
251.5,262.5,-9523.809524,1.4345,301.5,312.5,-7000,0.9949,351.5,362.5,-5363.984674,3.0792,401.5,412.5,-7586.206897,4.398
252,263,-9451.385117,1.4153,302,313,-6948.881789,0.9938,352,363,-5325.987144,3.0831,402,413,-7548.209366,4.4408
252.5,263.5,-9379.235565,1.4046,302.5,313.5,-6897.926635,0.9923,352.5,363.5,-5288.094146,3.097,402.5,413.5,-7510.316369,4.4785
253,264,-9307.359307,1.3532,303,314,-6847.133758,1.0045,353,364,-5250.30525,3.1095,403,414,-7472.527473,4.5173
253.5,264.5,-9235.754793,1.3333,303.5,314.5,-6796.502385,1.0243,353.5,364.5,-5212.620027,3.122,403.5,414.5,-7434.84225,4.5559
254,265,-9164.420485,1.3663,304,315,-6746.031746,1.0447,354,365,-5175.038052,3.1337,404,415,-7397.260274,4.5955
254.5,265.5,-9093.354856,1.4281,304.5,315.5,-6695.721078,1.0524,354.5,365.5,-5137.5589,3.1453,404.5,415.5,-7359.781122,4.6363
255,266,-9022.556391,1.4119,305,316,-6645.56962,1.0432,355,366,-5100.182149,3.1605,405,416,-7322.404372,4.6723
255.5,266.5,-8952.023586,1.4391,305.5,316.5,-6595.576619,1.0431,355.5,366.5,-5062.907382,3.1714,405.5,416.5,-7285.129604,4.701
256,267,-8881.754949,1.4752,306,317,-6545.741325,1.0297,356,367,-5025.734181,3.1801,406,417,-7247.956403,4.7399
256.5,267.5,-8811.748999,1.5212,306.5,317.5,-6496.062992,1.0153,356.5,367.5,-4988.662132,3.19,406.5,417.5,-7210.884354,4.7853
257,268,-8742.004264,1.4437,307,318,-6446.540881,1.0289,357,368,-4951.690821,3.1958,407,418,-7173.913043,4.8212
257.5,268.5,-8672.519287,1.4367,307.5,318.5,-6397.174254,1.0235,357.5,368.5,-4914.81984,3.2065,407.5,418.5,-7137.042062,4.8591
258,269,-8603.292618,1.3586,308,319,-6347.962382,1.0277,358,369,-4878.04878,3.2151,408,419,-7100.271003,4.9003
258.5,269.5,-8534.32282,1.4,308.5,319.5,-6298.904538,1.0534,358.5,369.5,-4841.377237,3.2245,408.5,419.5,-7063.599459,4.9438
259,270,-8465.608466,1.4358,309,320,-6250,1.0773,359,370,-4804.804805,3.2296,409,420,-7027.027027,4.9836
259.5,270.5,-8397.148138,1.5258,309.5,320.5,-6201.24805,1.091,359.5,370.5,-4768.331084,3.2325,409.5,420.5,-6990.553306,5.0292
260,271,-8328.940432,1.5459,310,321,-6152.647975,1.0676,360,371,-4731.955675,3.2357,410,421,-6954.177898,5.0724
260.5,271.5,-8260.983952,1.5862,310.5,321.5,-6104.199067,1.0547,360.5,371.5,-4695.678182,3.2417,410.5,421.5,-6917.900404,5.1152
261,272,-8193.277311,1.5375,311,322,-6055.900621,1.0529,361,372,-4659.498208,3.2459,411,422,-6881.72043,5.1564
261.5,272.5,-8125.819135,1.5063,311.5,322.5,-6007.751938,1.0524,361.5,372.5,-4623.415362,3.2512,411.5,422.5,-6845.637584,5.2008
262,273,-8058.608059,1.4371,312,323,-5959.752322,1.0512,362,373,-4587.429252,3.2606,412,423,-6809.651475,5.2418
262.5,273.5,-7991.642727,1.4448,312.5,323.5,-5911.901082,1.05,362.5,373.5,-4551.539491,3.2678,412.5,423.5,-6773.761714,5.2823
263,274,-7924.921794,1.4078,313,324,-5864.197531,1.0759,363,374,-4515.745692,3.2739,413,424,-6737.967914,5.3247
263.5,274.5,-7858.443924,1.3786,313.5,324.5,-5816.640986,1.0935,363.5,374.5,-4480.047471,3.2806,413.5,424.5,-6702.269693,5.3671
264,275,-7792.207792,1.3971,314,325,-5769.230769,1.0996,364,375,-4444.444444,3.2863,414,425,-6666.666667,5.4055
264.5,275.5,-7726.212082,1.4687,314.5,325.5,-5721.966206,1.1206,364.5,375.5,-4408.936233,3.2972,414.5,425.5,-6631.158455,5.4361
265,276,-7660.455487,1.464,315,326,-5674.846626,1.1142,365,376,-4373.522459,3.3036,415,426,-6595.744681,5.4764
265.5,276.5,-7594.936709,1.4022,315.5,326.5,-5627.871363,1.1118,365.5,376.5,-4338.202745,3.3099,415.5,426.5,-6560.424967,5.5048
266,277,-7529.654461,1.3968,316,327,-5581.039755,1.1286,366,377,-4302.976717,3.3156,416,427,-6525.198939,5.5183
266.5,277.5,-7464.607465,1.4011,316.5,327.5,-5534.351145,1.1526,366.5,377.5,-4267.844003,3.3234,416.5,427.5,-6490.066225,5.5096
267,278,-7399.79445,1.4467,317,328,-5487.804878,1.1663,367,378,-4232.804233,3.33,417,428,-6455.026455,5.4585
267.5,278.5,-7335.214157,1.4188,317.5,328.5,-5441.400304,1.1682,367.5,378.5,-4197.857038,3.3405,417.5,428.5,-6420.07926,5.3689
268,279,-7270.865335,1.4257,318,329,-5395.136778,1.1554,368,379,-4163.002052,3.3475,418,429,-6385.224274,5.2476
268.5,279.5,-7206.746742,1.3946,318.5,329.5,-5349.013657,1.117,368.5,379.5,-4128.238911,3.3581,418.5,429.5,-6350.461133,5.0972
269,280,-7142.857143,1.4346,319,330,-5303.030303,1.0968,369,380,-4093.567251,3.3692,419,430,-6315.789474,4.9618
269.5,280.5,-7079.195314,1.4213,319.5,330.5,-5257.186082,1.0864,369.5,380.5,-4058.986713,3.3793,419.5,430.5,-6281.208936,4.8861
270,281,-7015.760041,1.3815,320,331,-5211.480363,1.0967,370,381,-4024.496938,3.3891,420,431,-6246.71916,4.9005
270.5,281.5,-6952.550114,1.3371,320.5,331.5,-5165.912519,1.1167,370.5,381.5,-3990.097568,3.401,420.5,431.5,-6212.31979,5.112
271,282,-6889.564336,1.3219,321,332,-5120.481928,1.1482,371,382,-3955.788249,3.4086,421,432,-6178.010471,5.7536
271.5,282.5,-6826.801517,1.3282,321.5,332.5,-5075.18797,1.2093,371.5,382.5,-3921.568627,3.4221,421.5,432.5,-6143.79085,7.0427
272,283,-6764.260475,1.2974,322,333,-5030.03003,1.2369,372,383,-3887.438352,3.4343,422,433,-6109.660574,9.1068
272.5,283.5,-6701.940035,1.266,322.5,333.5,-4985.007496,1.2351,372.5,383.5,-3853.397074,3.446,422.5,433.5,-6075.619296,12.4132
273,284,-6639.839034,1.2754,323,334,-4940.11976,1.2155,373,384,-3819.444444,3.4562,423,434,-6041.666667,17.1863
273.5,284.5,-6577.956314,1.3491,323.5,334.5,-4895.366218,1.2002,373.5,384.5,-3785.580118,3.4634,423.5,434.5,-6007.802341,20.9108
274,285,-6516.290727,1.4781,324,335,-4850.746269,1.1984,374,385,-3751.803752,3.4736,424,435,-5974.025974,28.5315
274.5,285.5,-6454.841131,1.5004,324.5,335.5,-4806.259314,1.1792,374.5,385.5,-3718.115002,3.4827,424.5,435.5,-5940.337224,40.5617
275,286,-6393.606394,1.5546,325,336,-4761.904762,1.1732,375,386,-3684.513529,3.4882,425,436,-5906.735751,58.1704
275.5,286.5,-6332.58539,1.5668,325.5,336.5,-4717.682021,1.1856,375.5,386.5,-3650.998994,3.4945,425.5,436.5,-5873.221216,81.6353
276,287,-6271.777003,1.5229,326,337,-4673.590504,1.1774,376,387,-3617.571059,3.5007,426,437,-5839.793282,111.7521
276.5,287.5,-6211.180124,1.5828,326.5,337.5,-4629.62963,1.1976,376.5,387.5,-3584.229391,3.5067,426.5,437.5,-5806.451613,149.028
277,288,-6150.793651,1.4836,327,338,-4585.798817,1.1824,377,388,-3550.973654,3.5123,427,438,-5773.195876,200.9099
277.5,288.5,-6090.616489,1.4341,327.5,338.5,-4542.097489,1.1804,377.5,388.5,-3517.803518,3.5169,427.5,438.5,-5740.02574,265.0004
278,289,-6030.647553,1.42,328,339,-4498.525074,1.2017,378,389,-3484.718652,3.5196,428,439,-5706.940874,338.2476
278.5,289.5,-5970.885764,1.499,328.5,339.5,-4455.081001,1.2396,378.5,389.5,-3451.718728,3.5222,428.5,439.5,-5673.94095,417.666
279,290,-5911.330049,1.5533,329,340,-4411.764706,1.2832,379,390,-3418.803419,3.5301,429,440,-5641.025641,500.3986
279.5,290.5,-5851.979346,1.5463,329.5,340.5,-4368.575624,1.304,379.5,390.5,-3385.9724,3.5372,429.5,440.5,-5608.194622,583.6873
280,291,-5792.832597,1.6073,330,341,-4325.513196,1.3351,380,391,-3353.225348,3.542,430,441,-5575.44757,664.956
280.5,291.5,-5733.888753,1.5663,330.5,341.5,-4282.576867,1.3459,380.5,391.5,-3320.561941,3.5484,430.5,441.5,-5542.784163,741.8789
281,292,-5675.146771,1.542,331,342,-4239.766082,1.3163,381,392,-3287.981859,3.554,431,442,-5510.204082,812.373
281.5,292.5,-5616.605617,1.5647,331.5,342.5,-4197.080292,1.3236,381.5,392.5,-3255.484784,3.5626,431.5,442.5,-5477.707006,874.5195
282,293,-5558.264261,1.5007,332,343,-4154.51895,1.3047,382,393,-3223.070399,3.572,432,443,-5445.292621,926.7445
282.5,293.5,-5500.121684,1.5216,332.5,343.5,-4112.081514,1.3197,382.5,393.5,-3190.738388,3.5838,432.5,443.5,-5412.96061,968.032
283,294,-5442.176871,1.5149,333,344,-4069.767442,1.3371,383,394,-3158.488438,3.5917,433,444,-5380.71066,997.5075
283.5,294.5,-5384.428814,1.5908,333.5,344.5,-4027.576197,1.3508,383.5,394.5,-3126.320237,3.5993,433.5,444.5,-5348.542459,999.999
284,295,-5326.876513,1.6499,334,345,-3985.507246,1.3685,384,395,-3094.233474,3.6119,434,445,-5316.455696,999.999
284.5,295.5,-5269.518975,1.6759,334.5,345.5,-3943.560058,1.371,384.5,395.5,-3062.227841,3.6227,434.5,445.5,-5284.450063,999.999
285,296,-5212.355212,1.6874,335,346,-3901.734104,1.383,385,396,-3030.30303,3.6292,435,446,-5252.525253,999.999
285.5,296.5,-5155.384245,1.6784,335.5,346.5,-3860.02886,1.3797,385.5,396.5,-2998.458736,3.6377,435.5,446.5,-5220.680958,999.999
286,297,-5098.605099,1.6857,336,347,-3818.443804,1.369,386,397,-2966.694654,3.6458,436,447,-5188.916877,999.999
286.5,297.5,-5042.016807,1.6608,336.5,347.5,-3776.978417,1.3933,386.5,397.5,-2935.010482,3.6546,436.5,447.5,-5157.232704,999.999
287,298,-4985.618408,1.636,337,348,-3735.632184,1.4095,387,398,-2903.405918,3.6654,437,448,-5125.628141,999.999
287.5,298.5,-4929.40895,1.6165,337.5,348.5,-3694.404591,1.4256,387.5,398.5,-2871.880664,3.6722,437.5,448.5,-5094.102886,999.999
288,299,-4873.387482,1.5734,338,349,-3653.295129,1.4349,388,399,-2840.434419,3.679,438,449,-5062.656642,999.999
288.5,299.5,-4817.553065,1.5453,338.5,349.5,-3612.30329,1.4307,388.5,399.5,-2809.066889,3.6881,438.5,449.5,-5031.289111,999.999
289,300,-4761.904762,1.5149,339,350,-3571.428571,1.4214,389,400,-2777.777778,3.699,439,450,-5000,999.999
289.5,300.5,-4706.441645,1.5327,339.5,350.5,-3530.670471,1.3993,389.5,400.5,-2746.566792,3.711,439.5,450.5,-4968.789014,999.999
290,301,-4651.162791,1.5233,340,351,-3490.02849,1.3992,390,401,-2715.433638,3.72,440,451,-4937.65586,999.999
290.5,301.5,-4596.067283,1.5343,340.5,351.5,-3449.502134,1.4198,390.5,401.5,-2684.378027,3.7336,440.5,451.5,-4906.600249,999.999
291,302,-4541.15421,1.5281,341,352,-3409.090909,1.4438,391,402,-2653.399668,3.7471,441,452,-4875.621891,999.999
291.5,302.5,-4486.422668,1.5102,341.5,352.5,-3368.794326,1.4646,391.5,402.5,-2622.498275,3.7627,441.5,452.5,-4844.720497,999.999
292,303,-4431.871759,1.5539,342,353,-3328.611898,1.4667,392,403,-2591.673559,3.7802,442,453,-4813.895782,999.999
292.5,303.5,-4377.500588,1.5746,342.5,353.5,-3288.54314,1.4693,392.5,403.5,-2560.925238,3.7949,442.5,453.5,-4783.14746,999.999
293,304,-4323.308271,1.6204,343,354,-3248.587571,1.4823,393,404,-2530.253025,3.8113,443,454,-4752.475248,999.999
293.5,304.5,-4269.293924,1.5811,343.5,354.5,-3208.744711,1.4851,393.5,404.5,-2499.656641,3.8311,443.5,454.5,-4721.878863,999.999
294,305,-4215.456674,1.5984,344,355,-3169.014085,1.4588,394,405,-2469.135802,3.8476,444,455,-4691.358025,999.999
294.5,305.5,-4161.795651,1.6067,344.5,355.5,-3129.395218,1.4485,394.5,405.5,-2438.690232,3.8638,444.5,455.5,-4660.912454,999.999
295,306,-4108.309991,1.5912,345,356,-3089.88764,1.4506,395,406,-2408.31965,3.8799,445,456,-4630.541872,999.999
295.5,306.5,-4054.998835,1.579,345.5,356.5,-3050.490884,1.4787,395.5,406.5,-2378.02378,3.8994,445.5,456.5,-4600.246002,999.999
296,307,-4001.861331,1.5602,346,357,-3011.204482,1.5192,396,407,-2347.802348,3.9133,446,457,-4570.02457,988.7016
296.5,307.5,-3948.896632,1.5065,346.5,357.5,-2972.027972,1.5389,396.5,407.5,-2317.655078,3.929,446.5,457.5,-4539.877301,956.0484
297,308,-3896.103896,1.5439,347,358,-2932.960894,1.5591,397,408,-2287.581699,3.9422,447,458,-4509.803922,914.9107
297.5,308.5,-3843.482288,1.5739,347.5,358.5,-2894.002789,1.5806,397.5,408.5,-2257.581939,3.9541,447.5,458.5,-4479.804162,865.2318
298,309,-3791.030975,1.6114,348,359,-2855.153203,1.5918,398,409,-2227.655528,3.9681,448,459,-4449.877751,807.8244
298.5,309.5,-3738.749135,1.5494,348.5,359.5,-2816.411683,1.6057,398.5,409.5,-2197.802198,3.981,448.5,459.5,-4420.02442,743.547
299,310,-3686.635945,1.5238,349,360,-2777.777778,1.5997,399,410,-2168.02168,3.9974,449,460,-4390.243902,673.7421
299.5,310.5,-3634.690591,1.5284,349.5,360.5,-2739.25104,1.6131,399.5,410.5,-2138.31371,4.0188,449.5,460.5,-4360.535932,600.0844
300,311,-3582.912265,1.5844,350,361,-2700.831025,1.6313,400,411,-2108.678021,4.0408,450,461,-4330.900243,524.4144
300.5,311.5,-3531.300161,1.5889,350.5,361.5,-2662.517289,1.6591,400.5,411.5,-2079.114351,4.0648,450.5,461.5,-4301.336574,448.913
301,312,-3479.85348,1.5894,351,362,-2624.309392,1.692,401,412,-2049.622438,4.0913,451,462,-4271.84466,376.0796
301.5,312.5,-3428.571429,1.5408,351.5,362.5,-2586.206897,1.7205,401.5,412.5,-2020.20202,4.1181,451.5,462.5,-4242.424242,308.5263
302,313,-3377.453218,1.5703,352,363,-2548.209366,1.7311,402,413,-1990.852838,4.1476,452,463,-4213.075061,249.0356
302.5,313.5,-3326.498063,1.6272,352.5,363.5,-2510.316369,1.7302,402.5,413.5,-1961.574634,4.1793,452.5,463.5,-4183.796856,200.4446
303,314,-3275.705187,1.6625,353,364,-2472.527473,1.7293,403,414,-1932.36715,4.2137,453,464,-4154.589372,163.503
303.5,314.5,-3225.073813,1.5953,353.5,364.5,-2434.84225,1.7088,403.5,414.5,-1903.23013,4.2473,453.5,464.5,-4125.452352,132.1835
304,315,-3174.603175,1.5631,354,365,-2397.260274,1.6927,404,415,-1874.16332,4.2813,454,465,-4096.385542,105.5276
304.5,315.5,-3124.292506,1.5724,354.5,365.5,-2359.781122,1.6861,404.5,415.5,-1845.166466,4.3214,454.5,465.5,-4067.388688,83.1362
305,316,-3074.141049,1.6358,355,366,-2322.404372,1.6727,405,416,-1816.239316,4.3588,455,466,-4038.461538,63.6114
305.5,316.5,-3024.148048,1.6002,355.5,366.5,-2285.129604,1.6949,405.5,416.5,-1787.381619,4.3907,455.5,466.5,-4009.603842,46.4892
306,317,-2974.312753,1.5818,356,367,-2247.956403,1.7273,406,417,-1758.593125,4.4253,456,467,-3980.815348,31.2055
306.5,317.5,-2924.634421,1.5602,356.5,367.5,-2210.884354,1.7409,406.5,417.5,-1729.873586,4.4632,456.5,467.5,-3952.095808,22.115
307,318,-2875.112309,1.5846,357,368,-2173.913043,1.7694,407,418,-1701.222754,4.5003,457,468,-3923.444976,15.4803
307.5,318.5,-2825.745683,1.5901,357.5,368.5,-2137.042062,1.7972,407.5,418.5,-1672.640382,4.5431,457.5,468.5,-3894.862605,10.7297
308,319,-2776.533811,1.6298,358,369,-2100.271003,1.8282,408,419,-1644.126226,4.5854,458,469,-3866.348449,7.6715
308.5,319.5,-2727.475967,1.6028,358.5,369.5,-2063.599459,1.8416,408.5,419.5,-1615.680042,4.6242,458.5,469.5,-3837.902265,5.7205
309,320,-2678.571429,1.6221,359,370,-2027.027027,1.8618,409,420,-1587.301587,4.6668,459,470,-3809.52381,4.6258
309.5,320.5,-2629.819478,1.6654,359.5,370.5,-1990.553306,1.8596,409.5,420.5,-1558.99062,4.7075,459.5,470.5,-3781.212842,4.0967
310,321,-2581.219404,1.825,360,371,-1954.177898,1.8466,410,421,-1530.746899,4.7408,460,471,-3752.969121,3.864
310.5,321.5,-2532.770495,1.7471,360.5,371.5,-1917.900404,1.8802,410.5,421.5,-1502.570186,4.7773,460.5,471.5,-3724.792408,3.8594
311,322,-2484.47205,1.7572,361,372,-1881.72043,1.8918,411,422,-1474.460242,4.8127,461,472,-3696.682464,4.0314
311.5,322.5,-2436.323367,1.7514,361.5,372.5,-1845.637584,1.8905,411.5,422.5,-1446.416831,4.8482,461.5,472.5,-3668.639053,4.2503
312,323,-2388.323751,1.7083,362,373,-1809.651475,1.916,412,423,-1418.439716,4.8877,462,473,-3640.661939,4.4582
312.5,323.5,-2340.47251,1.7118,362.5,373.5,-1773.761714,1.9198,412.5,423.5,-1390.528663,4.9273,462.5,473.5,-3612.750885,4.5847
313,324,-2292.768959,1.7159,363,374,-1737.967914,1.9423,413,424,-1362.683438,4.9635,463,474,-3584.90566,4.65
313.5,324.5,-2245.212415,1.7396,363.5,374.5,-1702.269693,1.9539,413.5,424.5,-1334.903808,5.0016,463.5,474.5,-3557.126031,4.6655
314,325,-2197.802198,1.802,364,375,-1666.666667,1.9673,414,425,-1307.189542,5.0427,464,475,-3529.411765,4.6504
314.5,325.5,-2150.537634,1.8312,364.5,375.5,-1631.158455,1.9636,414.5,425.5,-1279.54041,5.0794,464.5,475.5,-3501.762632,4.615
315,326,-2103.418054,1.9184,365,376,-1595.744681,1.9737,415,426,-1251.956182,5.1121,465,476,-3474.178404,4.5607
315.5,326.5,-2056.442792,1.8703,365.5,376.5,-1560.424967,1.9954,415.5,426.5,-1224.436629,5.1367,465.5,476.5,-3446.658851,4.5034
316,327,-2009.611184,1.9192,366,377,-1525.198939,1.9942,416,427,-1196.981525,5.1555,466,477,-3419.203747,4.4459
316.5,327.5,-1962.922574,1.8973,366.5,377.5,-1490.066225,1.9889,416.5,427.5,-1169.590643,5.1482,466.5,477.5,-3391.812865,4.3908
317,328,-1916.376307,1.9188,367,378,-1455.026455,1.9992,417,428,-1142.263759,5.1106,467,478,-3364.485981,4.3387
317.5,328.5,-1869.971733,1.9657,367.5,378.5,-1420.07926,2.0037,417.5,428.5,-1115.000648,5.0306,467.5,478.5,-3337.22287,4.2971
318,329,-1823.708207,1.9264,368,379,-1385.224274,2.0155,418,429,-1087.801088,4.9236,468,479,-3310.02331,4.2567
318.5,329.5,-1777.585086,1.9447,368.5,379.5,-1350.461133,2.023,418.5,429.5,-1060.664856,4.8016,468.5,479.5,-3282.887078,4.2195
319,330,-1731.601732,1.9545,369,380,-1315.789474,2.0357,419,430,-1033.591731,4.685,469,480,-3255.813953,4.1774
319.5,330.5,-1685.75751,1.882,369.5,380.5,-1281.208936,2.0444,419.5,430.5,-1006.581494,4.6139,469.5,480.5,-3228.803717,4.1378
320,331,-1640.051791,1.8639,370,381,-1246.71916,2.0403,420,431,-979.6339263,4.6223,470,481,-3201.856148,4.1035
320.5,331.5,-1594.483947,1.857,370.5,381.5,-1212.31979,2.0718,420.5,431.5,-952.7488091,4.8355,470.5,481.5,-3174.971031,4.0759
321,332,-1549.053356,1.8655,371,382,-1178.010471,2.0854,421,432,-925.9259259,5.4363,471,482,-3148.148148,4.051
321.5,332.5,-1503.759398,1.9026,371.5,382.5,-1143.79085,2.0979,421.5,432.5,-899.165061,6.6188,471.5,482.5,-3121.387283,4.0276
322,333,-1458.601459,1.9551,372,383,-1109.660574,2.1352,422,433,-872.4659995,8.59,472,483,-3094.688222,4.0055
322.5,333.5,-1413.578925,1.961,372.5,383.5,-1075.619296,2.1757,422.5,433.5,-845.8285275,11.7145,472.5,483.5,-3068.05075,3.9782
323,334,-1368.691189,1.9004,373,384,-1041.666667,2.2231,423,434,-819.2524322,16.2819,473,484,-3041.474654,3.9484
323.5,334.5,-1323.937647,1.8948,373.5,384.5,-1007.802341,2.2758,423.5,434.5,-792.7375016,19.7163,473.5,484.5,-3014.959724,3.9158
324,335,-1279.317697,1.9001,374,385,-974.025974,2.3354,424,435,-766.2835249,26.6992,474,485,-2988.505747,3.886
324.5,335.5,-1234.830743,1.9563,374.5,385.5,-940.3372244,2.3881,424.5,435.5,-739.8902921,37.8405,474.5,485.5,-2962.112514,3.8616
325,336,-1190.47619,1.9441,375,386,-906.7357513,2.4853,425,436,-713.5575943,54.3695,475,486,-2935.779817,3.8278
325.5,336.5,-1146.253449,1.909,375.5,386.5,-873.221216,2.6228,425.5,436.5,-687.2852234,76.3495,475.5,486.5,-2909.507446,3.7898
326,337,-1102.161933,2.0044,376,387,-839.7932817,2.7417,426,437,-661.0729723,104.656,476,487,-2883.295195,3.7563
326.5,337.5,-1058.201058,2.2277,376.5,387.5,-806.4516129,2.828,426.5,437.5,-634.9206349,139.7121,476.5,487.5,-2857.142857,3.7219
327,338,-1014.370245,2.344,377,388,-773.1958763,2.9501,427,438,-608.8280061,185.2711,477,488,-2831.050228,3.6894
327.5,338.5,-970.6689175,2.3965,377.5,388.5,-740.02574,3.235,427.5,438.5,-582.7948815,244.1605,477.5,488.5,-2805.017104,3.6611
328,339,-927.0965023,2.4539,378,389,-706.940874,3.8941,428,439,-556.821058,313.3233,478,489,-2779.04328,3.6251
328.5,339.5,-883.65243,2.7863,378.5,389.5,-673.9409499,5.505,428.5,439.5,-530.906333,389.7509,478.5,489.5,-2753.128555,3.5913
329,340,-840.3361345,3.5062,379,390,-641.025641,9.0213,429,440,-505.0505051,470.542,479,490,-2727.272727,3.5566
329.5,340.5,-797.1470527,4.5458,379.5,390.5,-608.1946223,10.8382,429.5,440.5,-479.2533737,552.9268,479.5,490.5,-2701.475596,3.524
330,341,-754.0846251,6.14,380,391,-575.4475703,22.2485,430,441,-453.5147392,634.2841,480,491,-2675.736961,3.4869
330.5,341.5,-711.1482953,10.7207,380.5,391.5,-542.7841635,45.7219,430.5,441.5,-427.8344029,712.237,480.5,491.5,-2650.056625,3.4493
331,342,-668.3375104,17.5884,381,392,-510.2040816,83.8645,431,442,-402.2121669,784.6034,481,492,-2624.434389,3.4131
331.5,342.5,-625.6517205,25.6721,381.5,392.5,-477.7070064,140.2253,431.5,442.5,-376.6478343,849.4073,481.5,492.5,-2598.870056,3.376
332,343,-583.090379,44.6117,382,393,-445.2926209,216.6238,432,443,-351.1412089,905.0041,482,493,-2573.363431,3.3359
332.5,343.5,-540.6529424,78.834,382.5,393.5,-412.9606099,314.0791,432.5,443.5,-325.6920957,950.143,482.5,493.5,-2547.914318,3.2956
333,344,-498.3388704,123.4076,383,394,-380.7106599,441.8251,433,444,-300.3003003,983.8433,483,494,-2522.522523,3.2594
333.5,344.5,-456.147626,176.7031,383.5,394.5,-348.5424588,581.6881,433.5,444.5,-274.9656293,999.999,483.5,494.5,-2497.187852,3.2246
334,345,-414.0786749,239.2554,384,395,-316.4556962,715.8162,434,445,-249.6878901,999.999,484,495,-2471.910112,3.1979
334.5,345.5,-372.1314865,327.8198,384.5,395.5,-284.4500632,828.7177,434.5,445.5,-224.4668911,999.999,484.5,495.5,-2446.689113,3.1651
335,346,-330.3055326,432.777,385,396,-252.5252525,920.3329,435,446,-199.3024415,999.999,485,496,-2421.524664,3.1319
335.5,346.5,-288.6002886,554.6864,385.5,396.5,-220.6809584,982.1375,435.5,446.5,-174.1943511,999.999,485.5,496.5,-2396.416573,3.1063
336,347,-247.0152326,676.657,386,397,-188.9168766,999.999,436,447,-149.142431,999.999,486,497,-2371.364653,3.0837
336.5,347.5,-205.5498458,786.9934,386.5,397.5,-157.2327044,999.999,436.5,447.5,-124.1464929,999.999,486.5,497.5,-2346.368715,3.0606
337,348,-164.2036125,884.096,387,398,-125.6281407,999.999,437,448,-99.20634921,999.999,487,498,-2321.428571,3.041
337.5,348.5,-122.9760197,958.9953,387.5,398.5,-94.10288582,999.999,437.5,448.5,-74.32181345,999.999,487.5,498.5,-2296.544036,3.0294
338,349,-81.86655751,999.999,388,399,-62.6566416,999.999,438,449,-49.49269983,999.999,488,499,-2271.714922,3.017
338.5,349.5,-40.87471899,999.999,388.5,399.5,-31.28911139,999.999,438.5,449.5,-24.71882338,999.999,488.5,499.5,-2246.941046,3.0046
339,350,0,999.999,389,400,0,999.999,439,450,0,999.999,489,500,-2222.222222,2.989
339.5,350.5,40.75810067,999.999,389.5,400.5,31.21098627,999.999,439.5,450.5,24.66395363,999.999,489.5,500.5,-2197.558269,2.9698
340,351,81.4000814,999.999,390,401,62.34413965,981.5525,440,451,49.27322,999.999,490,501,-2172.949002,2.9531
340.5,351.5,121.9264377,983.7282,390.5,401.5,93.39975093,920.1186,440.5,451.5,73.8279808,999.999,490.5,501.5,-2148.394241,2.938
341,352,162.3376623,944.4404,391,402,124.3781095,828.3879,441,452,98.32841691,999.999,491,502,-2123.893805,2.9199
341.5,352.5,202.6342452,879.713,391.5,402.5,155.2795031,711.4037,441.5,452.5,122.7747084,999.999,491.5,502.5,-2099.447514,2.9026
342,353,242.8166734,784.6124,392,403,186.1042184,575.4509,442,453,147.1670346,999.999,492,503,-2075.055188,2.8837
342.5,353.5,282.8854314,671.0163,392.5,403.5,216.8525403,442.3885,442.5,453.5,171.5055739,999.999,492.5,503.5,-2050.716648,2.8666
343,354,322.8410008,549.4053,393,404,247.5247525,325.6892,443,454,195.7905042,999.999,493,504,-2026.431718,2.8484
343.5,354.5,362.6838606,432.3752,393.5,404.5,278.1211372,239.9616,443.5,454.5,220.0220022,999.999,493.5,504.5,-2002.20022,2.8309
344,355,402.4144869,330.1246,394,405,308.6419753,173.4745,444,455,244.2002442,999.999,494,505,-1978.021978,2.8134
344.5,355.5,442.0333534,242.3051,394.5,405.5,339.0875462,123.1178,444.5,455.5,268.3254055,999.999,494.5,505.5,-1953.896817,2.7959
345,356,481.540931,170.5207,395,406,369.4581281,86.7901,445,456,292.3976608,999.999,495,506,-1929.824561,2.7851
345.5,356.5,520.9376878,116.9341,395.5,406.5,399.7539975,60.708,445.5,456.5,316.4171839,999.999,495.5,506.5,-1905.805038,2.7729
346,357,560.2240896,81.6144,396,407,429.97543,40.5889,446,457,340.3841478,977.2372,496,507,-1881.838074,2.7582
346.5,357.5,599.4005994,53.8573,396.5,407.5,460.1226994,24.5687,446.5,457.5,364.298725,941.0299,496.5,507.5,-1857.923497,2.7461
347,358,638.4676776,29.9431,397,408,490.1960784,10.7563,447,458,388.1610869,896.4939,497,508,-1834.061135,2.738
347.5,358.5,677.425782,15.6711,397.5,408.5,520.1958384,6.0876,447.5,458.5,411.9714043,843.7342,497.5,508.5,-1810.250818,2.733
348,359,716.2753681,7.6875,398,409,550.1222494,4.0804,448,459,435.7298475,783.752,498,509,-1786.492375,2.7225
348.5,359.5,755.0168885,4.1062,398.5,409.5,579.97558,3.3636,448.5,459.5,459.4365857,717.5027,498.5,509.5,-1762.785637,2.7099
349,360,793.6507937,3.5831,399,410,609.7560976,3.1684,449,460,483.0917874,646.4323,499,510,-1739.130435,2.6981
349.5,360.5,832.1775312,3.6811,399.5,410.5,639.4640682,3.0923,449.5,460.5,506.6956207,572.2896,499.5,510.5,-1715.526602,2.6915
350,361,870.5975465,3.7659,400,411,669.0997567,3.0305,450,461,530.2482526,497.0186,500,511,-1691.97397,2.6879
350.5,361.5,908.9112824,3.5395,400.5,411.5,698.6634265,2.9105,450.5,461.5,553.7498495,422.8439,500.5,511.5,-1668.472373,2.6806
351,362,947.1191792,3.484,401,412,728.1553398,2.7836,451,462,577.2005772,352.2806,501,512,-1645.021645,2.6729
351.5,362.5,985.2216749,3.382,401.5,412.5,757.5757576,2.6875,451.5,462.5,600.6006006,287.9908,501.5,512.5,-1621.621622,2.6698
352,363,1023.219205,3.2,402,413,786.9249395,2.561,452,463,623.950084,232.7858,502,513,-1598.272138,2.66
352.5,363.5,1061.112203,3.0865,402.5,413.5,816.2031439,2.4565,452.5,463.5,647.2491909,189.527,502.5,513.5,-1574.973031,2.6512
353,364,1098.901099,2.8794,403,414,845.410628,2.3607,453,464,670.4980843,154.8043,503,514,-1551.724138,2.6412
353.5,364.5,1136.586322,2.7743,403.5,414.5,874.5476478,2.2997,453.5,464.5,693.6969262,125.2282,503.5,514.5,-1528.525296,2.6323
354,365,1174.168297,2.6193,404,415,903.6144578,2.254,454,465,716.8458781,100.125,504,515,-1505.376344,2.6284
354.5,365.5,1211.64745,2.4848,404.5,415.5,932.6113117,2.2176,454.5,465.5,739.9451008,78.8572,504.5,515.5,-1482.277121,2.6276
355,366,1249.0242,2.4446,405,416,961.5384615,2.1989,455,466,762.9947544,60.264,505,516,-1459.227468,2.6252
355.5,366.5,1286.298967,2.4801,405.5,416.5,990.3961585,2.1744,455.5,466.5,785.9949982,44.0082,505.5,516.5,-1436.227224,2.6224
356,367,1323.472168,2.3951,406,417,1019.184652,2.1569,456,467,808.945991,29.5317,506,517,-1413.276231,2.6221
356.5,367.5,1360.544218,2.3115,406.5,417.5,1047.904192,2.1303,456.5,467.5,831.8478907,20.9217,506.5,517.5,-1390.374332,2.6241
357,368,1397.515528,2.2047,407,418,1076.555024,2.1113,457,468,854.7008547,14.605,507,518,-1367.521368,2.627
357.5,368.5,1434.386509,2.2299,407.5,418.5,1105.137395,2.1098,457.5,468.5,877.5050397,10.0766,507.5,518.5,-1344.717182,2.6332
358,369,1471.157569,2.1367,408,419,1133.651551,2.1206,458,469,900.2606018,7.1906,508,519,-1321.96162,2.6394
358.5,369.5,1507.829113,2.1391,408.5,419.5,1162.097735,2.1254,458.5,469.5,922.9676961,5.3427,508.5,519.5,-1299.254526,2.6487
359,370,1544.401544,2.1595,409,420,1190.47619,2.1067,459,470,945.6264775,4.3069,509,520,-1276.595745,2.6613
359.5,370.5,1580.875265,2.1683,409.5,420.5,1218.787158,2.0871,459.5,470.5,968.2371,3.8139,509.5,520.5,-1253.985122,2.6763
360,371,1617.250674,2.1854,410,421,1247.030879,2.0804,460,471,990.7997169,3.6175,510,521,-1231.422505,2.69
360.5,371.5,1653.528168,2.1952,410.5,421.5,1275.207592,2.0695,460.5,471.5,1013.314481,3.6252,510.5,521.5,-1208.907741,2.7004
361,372,1689.708141,2.0735,411,422,1303.317536,2.0617,461,472,1035.781544,3.7815,511,522,-1186.440678,2.7126
361.5,372.5,1725.790988,2.0467,411.5,422.5,1331.360947,2.049,461.5,472.5,1058.201058,3.9869,511.5,522.5,-1164.021164,2.7257
362,373,1761.777097,1.9824,412,423,1359.338061,2.0316,462,473,1080.573174,4.1831,512,523,-1141.649049,2.7355
362.5,373.5,1797.666858,2.0205,412.5,423.5,1387.249115,2.0255,462.5,473.5,1102.898041,4.2985,512.5,523.5,-1119.324182,2.7473
363,374,1833.460657,1.9845,413,424,1415.09434,2.027,463,474,1125.175809,4.3532,513,524,-1097.046414,2.7623
363.5,374.5,1869.158879,1.9972,413.5,424.5,1442.873969,2.0235,463.5,474.5,1147.406627,4.3644,513.5,524.5,-1074.815595,2.7773
364,375,1904.761905,2.0431,414,425,1470.588235,2.0155,464,475,1169.590643,4.3491,514,525,-1052.631579,2.793
364.5,375.5,1940.270116,2.0267,414.5,425.5,1498.237368,2.0053,464.5,475.5,1191.728006,4.3172,514.5,525.5,-1030.494217,2.8067
365,376,1975.683891,2.0189,415,426,1525.821596,2.0031,465,476,1213.818861,4.2672,515,526,-1008.403361,2.8168
365.5,376.5,2011.003605,2.018,415.5,426.5,1553.341149,1.994,465.5,476.5,1235.863355,4.2104,515.5,526.5,-986.3588667,2.8267
366,377,2046.229632,1.985,416,427,1580.796253,1.9805,466,477,1257.861635,4.1549,516,527,-964.360587,2.8369
366.5,377.5,2081.362346,1.9928,416.5,427.5,1608.187135,1.9635,466.5,477.5,1279.813845,4.1025,516.5,527.5,-942.408377,2.8468
367,378,2116.402116,2.0192,417,428,1635.514019,1.9558,467,478,1301.72013,4.0562,517,528,-920.5020921,2.8556
367.5,378.5,2151.349311,2.0406,417.5,428.5,1662.77713,1.9533,467.5,478.5,1323.580634,4.0159,517.5,528.5,-898.6415883,2.8618
368,379,2186.204297,2.0453,418,429,1689.97669,1.9634,468,479,1345.3955,3.9807,518,529,-876.8267223,2.8676
368.5,379.5,2220.967438,2.0628,418.5,429.5,1717.112922,1.9574,468.5,479.5,1367.164871,3.9504,518.5,529.5,-855.0573514,2.8731
369,380,2255.639098,2.0668,419,430,1744.186047,1.9673,469,480,1388.888889,3.9187,519,530,-833.3333333,2.8746
369.5,380.5,2290.219636,2.0217,419.5,430.5,1771.196283,1.9504,469.5,480.5,1410.567696,3.8946,519.5,530.5,-811.6545265,2.8744
370,381,2324.709411,2.0132,420,431,1798.143852,1.9283,470,481,1432.201432,3.866,520,531,-790.02079,2.8702
370.5,381.5,2359.108781,2.01,420.5,431.5,1825.028969,1.8762,470.5,481.5,1453.790239,3.8416,520.5,531.5,-768.4319834,2.8626
371,382,2393.4181,2.0604,421,432,1851.851852,1.8318,471,482,1475.334255,3.8207,521,532,-746.8879668,2.8522
371.5,382.5,2427.637722,2.0759,421.5,432.5,1878.612717,1.7849,471.5,482.5,1496.833621,3.7949,521.5,532.5,-725.388601,2.8417
372,383,2461.767997,2.1157,422,433,1905.311778,1.726,472,483,1518.288475,3.7697,522,533,-703.9337474,2.8263
372.5,383.5,2495.809275,2.1043,422.5,433.5,1931.94925,1.6859,472.5,483.5,1539.698954,3.7451,522.5,533.5,-682.5232678,2.8103
373,384,2529.761905,2.0988,423,434,1958.525346,1.6548,473,484,1561.065197,3.7208,523,534,-661.1570248,2.7981
373.5,384.5,2563.626231,2.1252,423.5,434.5,1985.040276,1.6149,473.5,484.5,1582.387341,3.699,523.5,534.5,-639.8348813,2.7796
374,385,2597.402597,2.1407,424,435,2011.494253,1.6056,474,485,1603.665521,3.6721,524,535,-618.556701,2.7583
374.5,385.5,2631.091347,2.1229,424.5,435.5,2037.887486,1.6031,474.5,485.5,1624.899874,3.642,524.5,535.5,-597.3223481,2.7374
375,386,2664.69282,2.0704,425,436,2064.220183,1.6154,475,486,1646.090535,3.6088,525,536,-576.1316872,2.7142
375.5,386.5,2698.207355,2.0483,425.5,436.5,2090.492554,1.6077,475.5,486.5,1667.237638,3.5761,525.5,536.5,-554.9845838,2.6901
376,387,2731.63529,2.0442,426,437,2116.704805,1.6318,476,487,1688.341319,3.5437,526,537,-533.8809035,2.6659
376.5,387.5,2764.976959,2.0027,426.5,437.5,2142.857143,1.63,476.5,487.5,1709.401709,3.5103,526.5,537.5,-512.8205128,2.641
377,388,2798.232695,2.0166,427,438,2168.949772,1.6219,477,488,1730.418944,3.4771,527,538,-491.8032787,2.6132
377.5,388.5,2831.402831,2.0112,427.5,438.5,2194.982896,1.6434,477.5,488.5,1751.393154,3.4407,527.5,538.5,-470.8290686,2.5867
378,389,2864.487697,1.961,428,439,2220.95672,1.6688,478,489,1772.324472,3.4057,528,539,-449.8977505,2.5665
378.5,389.5,2897.487621,2.0454,428.5,439.5,2246.871445,1.6825,478.5,489.5,1793.213029,3.3754,528.5,539.5,-429.0091931,2.5392
379,390,2930.40293,2.0348,429,440,2272.727273,1.711,479,490,1814.058957,3.35,529,540,-408.1632653,2.5116
379.5,390.5,2963.233949,2.1947,429.5,440.5,2298.524404,1.7321,479.5,490.5,1834.862385,3.3197,529.5,540.5,-387.3598369,2.4885
380,391,2995.981001,2.3055,430,441,2324.263039,1.7369,480,491,1855.623444,3.2839,530,541,-366.598778,2.4605
380.5,391.5,3028.644408,2.5017,430.5,441.5,2349.943375,1.7239,480.5,491.5,1876.342263,3.2506,530.5,541.5,-345.8799593,2.4287
381,392,3061.22449,2.7614,431,442,2375.565611,1.72,481,492,1897.01897,3.2265,531,542,-325.203252,2.394
381.5,392.5,3093.721565,3.022,431.5,442.5,2401.129944,1.6773,481.5,492.5,1917.653694,3.1953,531.5,542.5,-304.5685279,2.3604
382,393,3126.135951,3.2965,432,443,2426.636569,1.6733,482,493,1938.246563,3.1636,532,543,-283.9756592,2.3254
382.5,393.5,3158.467962,3.4163,432.5,443.5,2452.085682,1.6802,482.5,493.5,1958.797703,3.1293,532.5,543.5,-263.4245187,2.2953
383,394,3190.717912,3.4815,433,444,2477.477477,1.7006,483,494,1979.307242,3.0942,533,544,-242.9149798,2.2679
383.5,394.5,3222.886113,3.6494,433.5,444.5,2502.812148,1.7068,483.5,494.5,1999.775306,3.0559,533.5,544.5,-222.4469161,2.2393
384,395,3254.972875,3.6531,434,445,2528.089888,1.714,484,495,2020.20202,3.0212,534,545,-202.020202,2.2093
384.5,395.5,3286.978508,3.8332,434.5,445.5,2553.310887,1.7064,484.5,495.5,2040.58751,2.9899,534.5,545.5,-181.6347124,2.182
385,396,3318.903319,3.8188,435,446,2578.475336,1.6806,485,496,2060.9319,2.9617,535,546,-161.2903226,2.1533
385.5,396.5,3350.747613,3.8367,435.5,446.5,2603.583427,1.6471,485.5,496.5,2081.235314,2.934,535.5,546.5,-140.9869084,2.1262
386,397,3382.511695,3.8341,436,447,2628.635347,1.607,486,497,2101.497876,2.9063,536,547,-120.7243461,2.1022
386.5,397.5,3414.195867,3.7875,436.5,447.5,2653.631285,1.5808,486.5,497.5,2121.71971,2.8789,536.5,547.5,-100.5025126,2.0788
387,398,3445.800431,3.7554,437,448,2678.571429,1.5967,487,498,2141.900937,2.8541,537,548,-80.32128514,2.0575
387.5,398.5,3477.325686,3.6367,437.5,448.5,2703.455964,1.613,487.5,498.5,2162.041681,2.8307,537.5,548.5,-60.18054162,2.0392
388,399,3508.77193,3.4991,438,449,2728.285078,1.6374,488,499,2182.142062,2.8105,538,549,-40.08016032,2.0201
388.5,399.5,3540.13946,3.5396,438.5,449.5,2753.058954,1.6695,488.5,499.5,2202.202202,2.7935,538.5,549.5,-20.02002002,2.001
389,400,3571.428571,3.4545,439,450,2777.777778,1.698,489,500,2222.222222,2.7764,539,550,0,1.986
389.5,400.5,3602.639558,3.3682,439.5,450.5,2802.441731,1.729,489.5,500.5,2242.202242,2.7607,539.5,550.5,19.98001998,1.9705
390,401,3633.772711,3.2646,440,451,2827.050998,1.7453,490,501,2262.142382,2.7481,540,551,39.92015968,1.9523
390.5,401.5,3664.828322,3.1344,440.5,451.5,2851.605759,1.7498,490.5,501.5,2282.042761,2.7329,540.5,551.5,59.82053838,1.9312
391,402,3695.806681,2.9172,441,452,2876.106195,1.7327,491,502,2301.903497,2.7262,541,552,79.6812749,1.9144
391.5,402.5,3726.708075,2.7818,441.5,452.5,2900.552486,1.7428,491.5,502.5,2321.72471,2.7113,541.5,552.5,99.50248756,1.9004
392,403,3757.53279,2.6839,442,453,2924.944812,1.7436,492,503,2341.506516,2.6972,542,553,119.2842942,1.8915
392.5,403.5,3788.281112,2.491,442.5,453.5,2949.283352,1.7452,492.5,503.5,2361.249035,2.6811,542.5,553.5,139.0268123,1.8819
393,404,3818.953324,2.2954,443,454,2973.568282,1.7735,493,504,2380.952381,2.6695,543,554,158.7301587,1.8703
393.5,404.5,3849.549709,2.2725,443.5,454.5,2997.79978,1.8332,493.5,504.5,2400.616672,2.6574,543.5,554.5,178.39445,1.8623
394,405,3880.070547,2.1506,444,455,3021.978022,1.9015,494,505,2420.242024,2.6522,544,555,198.019802,1.8521
394.5,405.5,3910.516118,2.089,444.5,455.5,3046.103183,1.9798,494.5,505.5,2439.828553,2.6431,544.5,555.5,217.6063304,1.8443
395,406,3940.8867,2.1085,445,456,3070.175439,2.047,495,506,2459.376372,2.6364,545,556,237.1541502,1.8354
395.5,406.5,3971.182569,2.0636,445.5,456.5,3094.194962,2.0786,495.5,506.5,2478.885598,2.6272,545.5,556.5,256.6633761,1.828
396,407,4001.404001,2.0151,446,457,3118.161926,2.0974,496,507,2498.356345,2.6159,546,557,276.1341223,1.8209
396.5,407.5,4031.551271,2.0907,446.5,457.5,3142.076503,2.1036,496.5,507.5,2517.788725,2.6057,546.5,557.5,295.5665025,1.814
397,408,4061.62465,2.1361,447,458,3165.938865,2.094,497,508,2537.182852,2.5948,547,558,314.9606299,1.8082
397.5,408.5,4091.62441,2.1496,447.5,458.5,3189.749182,2.0949,497.5,508.5,2556.53884,2.5865,547.5,558.5,334.3166175,1.8049
398,409,4121.550821,2.1303,448,459,3213.507625,2.114,498,509,2575.8568,2.5749,548,559,353.6345776,1.8002
398.5,409.5,4151.404151,2.1242,448.5,459.5,3237.214363,2.1309,498.5,509.5,2595.136844,2.5636,548.5,559.5,372.9146222,1.7922
399,410,4181.184669,2.1129,449,460,3260.869565,2.1537,499,510,2614.379085,2.5531,549,560,392.1568627,1.7822
399.5,410.5,4210.89264,2.1197,449.5,460.5,3284.473398,2.1761,499.5,510.5,2633.583633,2.5462,549.5,560.5,411.3614104,1.7713
400,411,4240.528328,2.1162,450,461,3308.02603,2.1874,500,511,2652.750598,2.5353,550,561,430.5283757,1.7619
400.5,411.5,4270.091998,2.0978,450.5,461.5,3331.527627,2.1911,500.5,511.5,2671.880091,2.525,550.5,561.5,449.657869,1.7527
401,412,4299.583911,2.0899,451,462,3354.978355,2.2027,501,512,2690.972222,2.5189,551,562,468.75,1.7442
401.5,412.5,4329.004329,2.1206,451.5,462.5,3378.378378,2.1974,501.5,512.5,2710.0271,2.5103,551.5,562.5,487.804878,1.7385
402,413,4358.353511,2.1318,452,463,3401.727862,2.1891,502,513,2729.044834,2.5086,552,563,506.8226121,1.7322
402.5,413.5,4387.631715,2.173,452.5,463.5,3425.026969,2.1972,502.5,513.5,2748.025533,2.507,552.5,563.5,525.8033106,1.7228
403,414,4416.839199,2.1623,453,464,3448.275862,2.1904,503,514,2766.969304,2.5055,553,564,544.7470817,1.7134
403.5,414.5,4445.976219,2.1634,453.5,464.5,3471.474704,2.1808,503.5,514.5,2785.876255,2.5064,553.5,564.5,563.654033,1.709
404,415,4475.043029,2.1734,454,465,3494.623656,2.1709,504,515,2804.746494,2.5024,554,565,582.5242718,1.7015
404.5,415.5,4504.039883,2.1647,454.5,465.5,3517.722879,2.1417,504.5,515.5,2823.580127,2.5036,554.5,565.5,601.3579049,1.6928
405,416,4532.967033,2.1574,455,466,3540.772532,2.1134,505,516,2842.377261,2.5058,555,566,620.1550388,1.6817
405.5,416.5,4561.82473,2.1227,455.5,466.5,3563.772776,2.0851,505.5,516.5,2861.138002,2.5058,555.5,566.5,638.9157793,1.6731
406,417,4590.613224,2.1396,456,467,3586.723769,2.0358,506,517,2879.862454,2.5064,556,567,657.6402321,1.6662
406.5,417.5,4619.332763,2.1357,456.5,467.5,3609.625668,1.987,506.5,517.5,2898.550725,2.5092,556.5,567.5,676.3285024,1.6621
407,418,4647.983595,2.0764,457,468,3632.478632,1.9152,507,518,2917.202917,2.5123,557,568,694.980695,1.6592
407.5,418.5,4676.565967,2.061,457.5,468.5,3655.282818,1.8839,507.5,518.5,2935.819136,2.5192,557.5,568.5,713.5969142,1.6545
408,419,4705.080123,2.0504,458,469,3678.03838,1.8559,508,519,2954.399486,2.5223,558,569,732.177264,1.6446
408.5,419.5,4733.526307,2.0598,458.5,469.5,3700.745474,1.8188,508.5,519.5,2972.94407,2.5259,558.5,569.5,750.7218479,1.6344
409,420,4761.904762,2.0948,459,470,3723.404255,1.7783,509,520,2991.452991,2.5346,559,570,769.2307692,1.6255
409.5,420.5,4790.21573,2.1121,459.5,470.5,3746.014878,1.7253,509.5,520.5,3009.926353,2.5461,559.5,570.5,787.7041306,1.6188
410,421,4818.45945,2.1628,460,471,3768.577495,1.6656,510,521,3028.364257,2.5558,560,571,806.1420345,1.612
410.5,421.5,4846.636163,2.1821,460.5,471.5,3791.092259,1.6212,510.5,521.5,3046.766805,2.5684,560.5,571.5,824.5445829,1.6076
411,422,4874.746107,2.2122,461,472,3813.559322,1.5837,511,522,3065.1341,2.5822,561,572,842.9118774,1.6023
411.5,422.5,4902.789518,2.1439,461.5,472.5,3835.978836,1.5473,511.5,522.5,3083.466241,2.5994,561.5,572.5,861.2440191,1.6
412,423,4930.766633,2.1022,462,473,3858.350951,1.5055,512,523,3101.763331,2.6159,562,573,879.541109,1.596
412.5,423.5,4958.677686,2.0865,462.5,473.5,3880.675818,1.506,512.5,523.5,3120.02547,2.6287,562.5,573.5,897.8032474,1.5935
413,424,4986.522911,2.0769,463,474,3902.953586,1.5166,513,524,3138.252757,2.6407,563,574,916.0305344,1.5916
413.5,424.5,5014.302541,2.1037,463.5,474.5,3925.184405,1.5005,513.5,524.5,3156.445292,2.6561,563.5,574.5,934.2230696,1.5929
414,425,5042.016807,2.0901,464,475,3947.368421,1.5064,514,525,3174.603175,2.6704,564,575,952.3809524,1.5901
414.5,425.5,5069.665939,2.0826,464.5,475.5,3969.505783,1.4996,514.5,525.5,3192.726504,2.6881,564.5,575.5,970.5042816,1.5852
415,426,5097.250168,2.0918,465,476,3991.596639,1.4905,515,526,3210.815378,2.7032,565,576,988.5931559,1.5823
415.5,426.5,5124.76972,2.1179,465.5,476.5,4013.641133,1.4997,515.5,526.5,3228.869896,2.7175,565.5,576.5,1006.647673,1.5824
416,427,5152.224824,2.06,466,477,4035.639413,1.5119,516,527,3246.890154,2.728,566,577,1024.667932,1.5836
416.5,427.5,5179.615706,2.0315,466.5,477.5,4057.591623,1.4956,516.5,527.5,3264.876251,2.7378,566.5,577.5,1042.654028,1.5842
417,428,5206.94259,2.0571,467,478,4079.497908,1.4715,517,528,3282.828283,2.7463,567,578,1060.606061,1.5842
417.5,428.5,5234.205701,2.0451,467.5,478.5,4101.358412,1.4633,517.5,528.5,3300.746347,2.7536,567.5,578.5,1078.524125,1.5825
418,429,5261.405261,2.0683,468,479,4123.173278,1.4448,518,529,3318.63054,2.7592,568,579,1096.408318,1.5801
418.5,429.5,5288.541493,2.1024,468.5,479.5,4144.942649,1.4286,518.5,529.5,3336.480957,2.7635,568.5,579.5,1114.258735,1.5777
419,430,5315.614618,2.1063,469,480,4166.666667,1.4253,519,530,3354.297694,2.7668,569,580,1132.075472,1.5744
419.5,430.5,5342.624855,2.0868,469.5,480.5,4188.345473,1.422,519.5,530.5,3372.080846,2.766,569.5,580.5,1149.858624,1.5733
420,431,5369.572423,2.1362,470,481,4209.97921,1.4324,520,531,3389.830508,2.7659,570,581,1167.608286,1.5712
420.5,431.5,5396.45754,2.1255,470.5,481.5,4231.568017,1.4286,520.5,531.5,3407.546775,2.7646,570.5,581.5,1185.324553,1.5747
421,432,5423.280423,2.0682,471,482,4253.112033,1.408,521,532,3425.229741,2.759,571,582,1203.007519,1.5758
421.5,432.5,5450.041288,2.1088,471.5,482.5,4274.611399,1.3907,521.5,532.5,3442.879499,2.7542,571.5,582.5,1220.657277,1.5771
422,433,5476.74035,2.0743,472,483,4296.066253,1.3839,522,533,3460.496143,2.7458,572,583,1238.273921,1.5789
422.5,433.5,5503.377822,2.0378,472.5,483.5,4317.476732,1.3886,522.5,533.5,3478.079767,2.7379,572.5,583.5,1255.857545,1.5827
423,434,5529.953917,2.049,473,484,4338.842975,1.3538,523,534,3495.630462,2.7285,573,584,1273.40824,1.5893
423.5,434.5,5556.468848,2.0686,473.5,484.5,4360.165119,1.3264,523.5,534.5,3513.148321,2.7233,573.5,584.5,1290.926099,1.595
424,435,5582.922824,2.1268,474,485,4381.443299,1.2902,524,535,3530.633437,2.7122,574,585,1308.411215,1.6001
424.5,435.5,5609.316057,2.1783,474.5,485.5,4402.677652,1.2665,524.5,535.5,3548.085901,2.6975,574.5,585.5,1325.863679,1.6047
425,436,5635.648755,2.2248,475,486,4423.868313,1.2309,525,536,3565.505804,2.6831,575,586,1343.283582,1.6126
425.5,436.5,5661.921126,2.1861,475.5,486.5,4445.015416,1.2154,525.5,536.5,3582.893238,2.6656,575.5,586.5,1360.671016,1.6186
426,437,5688.133377,2.194,476,487,4466.119097,1.1791,526,537,3600.248293,2.6438,576,587,1378.026071,1.6247
426.5,437.5,5714.285714,2.2193,476.5,487.5,4487.179487,1.1868,526.5,537.5,3617.571059,2.6195,576.5,587.5,1395.348837,1.6308
427,438,5740.378343,2.18,477,488,4508.196721,1.1879,527,538,3634.861627,2.5932,577,588,1412.639405,1.643
427.5,438.5,5766.411468,2.2119,477.5,488.5,4529.170931,1.1948,527.5,538.5,3652.120087,2.5622,577.5,588.5,1429.897864,1.6514
428,439,5792.385291,2.183,478,489,4550.102249,1.1707,528,539,3669.346526,2.5327,578,589,1447.124304,1.6585
428.5,439.5,5818.300016,2.184,478.5,489.5,4570.990807,1.1268,528.5,539.5,3686.541036,2.5016,578.5,589.5,1464.318814,1.6669
429,440,5844.155844,2.2214,479,490,4591.836735,1.0808,529,540,3703.703704,2.4672,579,590,1481.481481,1.6726
429.5,440.5,5869.952976,2.2328,479.5,490.5,4612.640163,1.0645,529.5,540.5,3720.834618,2.4328,579.5,590.5,1498.612396,1.6806
430,441,5895.69161,2.1659,480,491,4633.401222,1.0308,530,541,3737.933867,2.4003,580,591,1515.711645,1.6907
430.5,441.5,5921.371946,2.1305,480.5,491.5,4654.120041,1.0159,530.5,541.5,3755.001539,2.3653,580.5,591.5,1532.779317,1.7014
431,442,5946.994182,2.1536,481,492,4674.796748,1.0038,531,542,3772.03772,2.3293,581,592,1549.815498,1.7088
431.5,442.5,5972.558515,2.109,481.5,492.5,4695.431472,1.0103,531.5,542.5,3789.042499,2.2947,581.5,592.5,1566.820276,1.7152
432,443,5998.06514,2.0877,482,493,4716.024341,0.9942,532,543,3806.015961,2.2611,582,593,1583.793738,1.7202
432.5,443.5,6023.514254,2.0962,482.5,493.5,4736.575481,0.9813,532.5,543.5,3822.958193,2.2284,582.5,593.5,1600.735971,1.727
433,444,6048.906049,2.0666,483,494,4757.08502,0.9449,533,544,3839.869281,2.194,583,594,1617.647059,1.7354
433.5,444.5,6074.24072,2.1635,483.5,494.5,4777.553084,0.9215,533.5,544.5,3856.749311,2.1648,583.5,594.5,1634.527089,1.7399
434,445,6099.518459,2.1253,484,495,4797.979798,0.9243,534,545,3873.598369,2.1363,584,595,1651.376147,1.7459
434.5,445.5,6124.739458,2.1041,484.5,495.5,4818.365288,0.9488,534.5,545.5,3890.416539,2.1093,584.5,595.5,1668.194317,1.7516
435,446,6149.903908,2.1114,485,496,4838.709677,0.9388,535,546,3907.203907,2.0833,585,596,1684.981685,1.7581
435.5,446.5,6175.011998,2.013,485.5,496.5,4859.013092,0.9578,535.5,546.5,3923.960557,2.0606,585.5,596.5,1701.738335,1.7607
436,447,6200.063918,1.9971,486,497,4879.275654,0.9808,536,547,3940.686573,2.0413,586,597,1718.464351,1.7692
436.5,447.5,6225.059856,1.9311,486.5,497.5,4899.497487,0.9932,536.5,547.5,3957.38204,2.0236,586.5,597.5,1735.159817,1.7833
437,448,6250,1.9289,487,498,4919.678715,0.9919,537,548,3974.04704,2.0091,587,598,1751.824818,1.7972
437.5,448.5,6274.884536,1.8548,487.5,498.5,4939.819458,0.9653,537.5,548.5,3990.681657,1.9959,587.5,598.5,1768.459435,1.8057
438,449,6299.713649,1.8599,488,499,4959.91984,0.9478,538,549,4007.285974,1.986,588,599,1785.063752,1.8153
438.5,449.5,6324.487526,1.964,488.5,499.5,4979.97998,0.9378,538.5,549.5,4023.860075,1.9763,588.5,599.5,1801.637853,1.8308
439,450,6349.206349,1.9212,489,500,5000,0.9253,539,550,4040.40404,1.969,589,600,1818.181818,1.8456
439.5,450.5,6373.870303,2.0033,489.5,500.5,5019.98002,0.9094,539.5,550.5,4056.917953,1.9608,589.5,600.5,1834.695731,1.862
440,451,6398.479569,2.0422,490,501,5039.92016,0.8972,540,551,4073.401896,1.9486,590,601,1851.179673,1.8771
440.5,451.5,6423.03433,1.9684,490.5,501.5,5059.820538,0.9151,540.5,551.5,4089.855948,1.9371,590.5,601.5,1867.633726,1.8896
441,452,6447.534766,1.9589,491,502,5079.681275,0.8939,541,552,4106.280193,1.9209,591,602,1884.057971,1.8981
441.5,452.5,6471.981058,1.8819,491.5,502.5,5099.502488,0.8743,541.5,552.5,4122.674711,1.9043,591.5,602.5,1900.452489,1.9033
442,453,6496.373384,1.8288,492,503,5119.284294,0.8544,542,553,4139.039582,1.8924,592,603,1916.81736,1.9107
442.5,453.5,6520.711923,1.7604,492.5,503.5,5139.026812,0.836,542.5,553.5,4155.374887,1.8771,592.5,603.5,1933.152665,1.9184
443,454,6544.996853,1.8175,493,504,5158.730159,0.8629,543,554,4171.680706,1.8571,593,604,1949.458484,1.9235
443.5,454.5,6569.228351,1.9063,493.5,504.5,5178.39445,0.868,543.5,554.5,4187.957119,1.8411,593.5,604.5,1965.734896,1.9264
444,455,6593.406593,1.9676,494,505,5198.019802,0.8718,544,555,4204.204204,1.8216,594,605,1981.981982,1.9273
444.5,455.5,6617.531755,2.0376,494.5,505.5,5217.60633,0.8566,544.5,555.5,4220.422042,1.8009,594.5,605.5,1998.19982,1.9256
445,456,6641.60401,2.172,495,506,5237.15415,0.8763,545,556,4236.610711,1.784,595,606,2014.388489,1.925
445.5,456.5,6665.623533,2.1119,495.5,506.5,5256.663376,0.8807,545.5,556.5,4252.770291,1.7754,595.5,606.5,2030.548068,1.9217
446,457,6689.590497,2.0317,496,507,5276.134122,0.8578,546,557,4268.900858,1.7641,596,607,2046.678636,1.9253
446.5,457.5,6713.505074,1.9315,496.5,507.5,5295.566502,0.8409,546.5,557.5,4285.002491,1.7523,596.5,607.5,2062.780269,1.9228
447,458,6737.367436,1.9219,497,508,5314.96063,0.8288,547,558,4301.075269,1.7405,597,608,2078.853047,1.9148
447.5,458.5,6761.177754,1.9816,497.5,508.5,5334.316618,0.8364,547.5,558.5,4317.119268,1.7323,597.5,608.5,2094.897046,1.9081
448,459,6784.936197,2.0301,498,509,5353.634578,0.8481,548,559,4333.134566,1.7205,598,609,2110.912343,1.9058
448.5,459.5,6808.642935,2.0628,498.5,509.5,5372.914622,0.8444,548.5,559.5,4349.121239,1.7074,598.5,609.5,2126.899017,1.9077
449,460,6832.298137,2.1905,499,510,5392.156863,0.8298,549,560,4365.079365,1.7101,599,610,2142.857143,1.9054
449.5,460.5,6855.90197,2.1566,499.5,510.5,5411.36141,0.7948,549.5,560.5,4381.00902,1.7097,599.5,610.5,2158.786798,1.8974
450,461,6879.454602,1.978,500,511,5430.528376,0.75,550,561,4396.910279,1.694,600,611,2174.688057,1.8896
,,,,,,,,,,,,600.5,,#DIV/0!,1.8828
,,,,,,,,,,,,601,,#DIV/0!,1.8745
,,,,,,,,,,,,601.5,,#DIV/0!,1.8665
,,,,,,,,,,,,602,,#DIV/0!,1.8616
,,,,,,,,,,,,602.5,,#DIV/0!,1.8502
,,,,,,,,,,,,603,,#DIV/0!,1.8412
,,,,,,,,,,,,603.5,,#DIV/0!,1.835
,,,,,,,,,,,,604,,#DIV/0!,1.8267
,,,,,,,,,,,,604.5,,#DIV/0!,1.8157
,,,,,,,,,,,,605,,#DIV/0!,1.8095
,,,,,,,,,,,,605.5,,#DIV/0!,1.8022
,,,,,,,,,,,,606,,#DIV/0!,1.7954
,,,,,,,,,,,,606.5,,#DIV/0!,1.7849
,,,,,,,,,,,,607,,#DIV/0!,1.778
,,,,,,,,,,,,607.5,,#DIV/0!,1.7751
,,,,,,,,,,,,608,,#DIV/0!,1.774
,,,,,,,,,,,,608.5,,#DIV/0!,1.7727
,,,,,,,,,,,,609,,#DIV/0!,1.7709
,,,,,,,,,,,,609.5,,#DIV/0!,1.7651
,,,,,,,,,,,,610,,#DIV/0!,1.7619
,,,,,,,,,,,,610.5,,#DIV/0!,1.759
,,,,,,,,,,,,611,,#DIV/0!,1.7594
,,,,,,,,,,,,611.5,,#DIV/0!,1.7589
,,,,,,,,,,,,612,,#DIV/0!,1.7581
,,,,,,,,,,,,612.5,,#DIV/0!,1.7526
,,,,,,,,,,,,613,,#DIV/0!,1.7558
,,,,,,,,,,,,613.5,,#DIV/0!,1.7575
,,,,,,,,,,,,614,,#DIV/0!,1.7511
,,,,,,,,,,,,614.5,,#DIV/0!,1.7453
,,,,,,,,,,,,615,,#DIV/0!,1.745
,,,,,,,,,,,,615.5,,#DIV/0!,1.7423
,,,,,,,,,,,,616,,#DIV/0!,1.7391
,,,,,,,,,,,,616.5,,#DIV/0!,1.7364
,,,,,,,,,,,,617,,#DIV/0!,1.7335
,,,,,,,,,,,,617.5,,#DIV/0!,1.7294
,,,,,,,,,,,,618,,#DIV/0!,1.7243
,,,,,,,,,,,,618.5,,#DIV/0!,1.7208
,,,,,,,,,,,,619,,#DIV/0!,1.7163
,,,,,,,,,,,,619.5,,#DIV/0!,1.7098
,,,,,,,,,,,,620,,#DIV/0!,1.7035
,,,,,,,,,,,,620.5,,#DIV/0!,1.6992
,,,,,,,,,,,,621,,#DIV/0!,1.6986
,,,,,,,,,,,,621.5,,#DIV/0!,1.6961
,,,,,,,,,,,,622,,#DIV/0!,1.6913
,,,,,,,,,,,,622.5,,#DIV/0!,1.6845
,,,,,,,,,,,,623,,#DIV/0!,1.6814
,,,,,,,,,,,,623.5,,#DIV/0!,1.6777
,,,,,,,,,,,,624,,#DIV/0!,1.6691
,,,,,,,,,,,,624.5,,#DIV/0!,1.6678
,,,,,,,,,,,,625,,#DIV/0!,1.6669
,,,,,,,,,,,,625.5,,#DIV/0!,1.6607
,,,,,,,,,,,,626,,#DIV/0!,1.6587
,,,,,,,,,,,,626.5,,#DIV/0!,1.6534
,,,,,,,,,,,,627,,#DIV/0!,1.6482
,,,,,,,,,,,,627.5,,#DIV/0!,1.6446
,,,,,,,,,,,,628,,#DIV/0!,1.6426
,,,,,,,,,,,,628.5,,#DIV/0!,1.6421
,,,,,,,,,,,,629,,#DIV/0!,1.6412
,,,,,,,,,,,,629.5,,#DIV/0!,1.6394
,,,,,,,,,,,,630,,#DIV/0!,1.6377
,,,,,,,,,,,,630.5,,#DIV/0!,1.6353
,,,,,,,,,,,,631,,#DIV/0!,1.6325
,,,,,,,,,,,,631.5,,#DIV/0!,1.627
,,,,,,,,,,,,632,,#DIV/0!,1.6205
,,,,,,,,,,,,632.5,,#DIV/0!,1.6136
,,,,,,,,,,,,633,,#DIV/0!,1.6079
,,,,,,,,,,,,633.5,,#DIV/0!,1.6008
,,,,,,,,,,,,634,,#DIV/0!,1.5922
,,,,,,,,,,,,634.5,,#DIV/0!,1.5852
,,,,,,,,,,,,635,,#DIV/0!,1.5772
,,,,,,,,,,,,635.5,,#DIV/0!,1.5667
,,,,,,,,,,,,636,,#DIV/0!,1.5602
,,,,,,,,,,,,636.5,,#DIV/0!,1.5501
,,,,,,,,,,,,637,,#DIV/0!,1.5451
,,,,,,,,,,,,637.5,,#DIV/0!,1.5432
,,,,,,,,,,,,638,,#DIV/0!,1.5401
,,,,,,,,,,,,638.5,,#DIV/0!,1.5376
,,,,,,,,,,,,639,,#DIV/0!,1.5346
,,,,,,,,,,,,639.5,,#DIV/0!,1.5292
,,,,,,,,,,,,640,,#DIV/0!,1.5256
,,,,,,,,,,,,640.5,,#DIV/0!,1.5164
,,,,,,,,,,,,641,,#DIV/0!,1.5079
,,,,,,,,,,,,641.5,,#DIV/0!,1.5004
,,,,,,,,,,,,642,,#DIV/0!,1.4893
,,,,,,,,,,,,642.5,,#DIV/0!,1.4754
,,,,,,,,,,,,643,,#DIV/0!,1.4626
,,,,,,,,,,,,643.5,,#DIV/0!,1.4513
,,,,,,,,,,,,644,,#DIV/0!,1.4427
,,,,,,,,,,,,644.5,,#DIV/0!,1.4311
,,,,,,,,,,,,645,,#DIV/0!,1.4203
,,,,,,,,,,,,645.5,,#DIV/0!,1.4083
,,,,,,,,,,,,646,,#DIV/0!,1.3975
,,,,,,,,,,,,646.5,,#DIV/0!,1.3872
,,,,,,,,,,,,647,,#DIV/0!,1.3773
,,,,,,,,,,,,647.5,,#DIV/0!,1.3665
,,,,,,,,,,,,648,,#DIV/0!,1.3565
,,,,,,,,,,,,648.5,,#DIV/0!,1.3497
,,,,,,,,,,,,649,,#DIV/0!,1.3289
,,,,,,,,,,,,649.5,,#DIV/0!,1.3057
,,,,,,,,,,,,650,,#DIV/0!,1.296
,,,,,,,,,,,,650.5,,#DIV/0!,
,,,,,,,,,,,,651,,#DIV/0!,
,,,,,,,,,,,,651.5,,#DIV/0!,
,,,,,,,,,,,,652,,#DIV/0!,
,,,,,,,,,,,,652.5,,#DIV/0!,
,,,,,,,,,,,,653,,#DIV/0!,
,,,,,,,,,,,,653.5,,#DIV/0!,
,,,,,,,,,,,,654,,#DIV/0!,
,,,,,,,,,,,,654.5,,#DIV/0!,
,,,,,,,,,,,,655,,#DIV/0!,
,,,,,,,,,,,,655.5,,#DIV/0!,
,,,,,,,,,,,,656,,#DIV/0!,
,,,,,,,,,,,,656.5,,#DIV/0!,
,,,,,,,,,,,,657,,#DIV/0!,
,,,,,,,,,,,,657.5,,#DIV/0!,
,,,,,,,,,,,,658,,#DIV/0!,
,,,,,,,,,,,,658.5,,#DIV/0!,
,,,,,,,,,,,,659,,#DIV/0!,
,,,,,,,,,,,,659.5,,#DIV/0!,
,,,,,,,,,,,,660,,#DIV/0!,
,,,,,,,,,,,,660.5,,#DIV/0!,
,,,,,,,,,,,,661,,#DIV/0!,
,,,,,,,,,,,,661.5,,#DIV/0!,
,,,,,,,,,,,,662,,#DIV/0!,
,,,,,,,,,,,,662.5,,#DIV/0!,
,,,,,,,,,,,,663,,#DIV/0!,
,,,,,,,,,,,,663.5,,#DIV/0!,
,,,,,,,,,,,,664,,#DIV/0!,
,,,,,,,,,,,,664.5,,#DIV/0!,
,,,,,,,,,,,,665,,#DIV/0!,
,,,,,,,,,,,,665.5,,#DIV/0!,
,,,,,,,,,,,,666,,#DIV/0!,
,,,,,,,,,,,,666.5,,#DIV/0!,
,,,,,,,,,,,,667,,#DIV/0!,
,,,,,,,,,,,,667.5,,#DIV/0!,
,,,,,,,,,,,,668,,#DIV/0!,
,,,,,,,,,,,,668.5,,#DIV/0!,
,,,,,,,,,,,,669,,#DIV/0!,
,,,,,,,,,,,,669.5,,#DIV/0!,
,,,,,,,,,,,,670,,#DIV/0!,
,,,,,,,,,,,,670.5,,#DIV/0!,
,,,,,,,,,,,,671,,#DIV/0!,
,,,,,,,,,,,,671.5,,#DIV/0!,
,,,,,,,,,,,,672,,#DIV/0!,
,,,,,,,,,,,,672.5,,#DIV/0!,
,,,,,,,,,,,,673,,#DIV/0!,
,,,,,,,,,,,,673.5,,#DIV/0!,
,,,,,,,,,,,,674,,#DIV/0!,
,,,,,,,,,,,,674.5,,#DIV/0!,
,,,,,,,,,,,,675,,#DIV/0!,
,,,,,,,,,,,,675.5,,#DIV/0!,
,,,,,,,,,,,,676,,#DIV/0!,
,,,,,,,,,,,,676.5,,#DIV/0!,
,,,,,,,,,,,,677,,#DIV/0!,
,,,,,,,,,,,,677.5,,#DIV/0!,
,,,,,,,,,,,,678,,#DIV/0!,
,,,,,,,,,,,,678.5,,#DIV/0!,
,,,,,,,,,,,,679,,#DIV/0!,
,,,,,,,,,,,,679.5,,#DIV/0!,
,,,,,,,,,,,,680,,#DIV/0!,
,,,,,,,,,,,,680.5,,#DIV/0!,
,,,,,,,,,,,,681,,#DIV/0!,
,,,,,,,,,,,,681.5,,#DIV/0!,
,,,,,,,,,,,,682,,#DIV/0!,
,,,,,,,,,,,,682.5,,#DIV/0!,
,,,,,,,,,,,,683,,#DIV/0!,
,,,,,,,,,,,,683.5,,#DIV/0!,
,,,,,,,,,,,,684,,#DIV/0!,
,,,,,,,,,,,,684.5,,#DIV/0!,
,,,,,,,,,,,,685,,#DIV/0!,
,,,,,,,,,,,,685.5,,#DIV/0!,
,,,,,,,,,,,,686,,#DIV/0!,
,,,,,,,,,,,,686.5,,#DIV/0!,
,,,,,,,,,,,,687,,#DIV/0!,
,,,,,,,,,,,,687.5,,#DIV/0!,
,,,,,,,,,,,,688,,#DIV/0!,
,,,,,,,,,,,,688.5,,#DIV/0!,
,,,,,,,,,,,,689,,#DIV/0!,
,,,,,,,,,,,,689.5,,#DIV/0!,
,,,,,,,,,,,,690,,#DIV/0!,
,,,,,,,,,,,,690.5,,#DIV/0!,
,,,,,,,,,,,,691,,#DIV/0!,
,,,,,,,,,,,,691.5,,#DIV/0!,
,,,,,,,,,,,,692,,#DIV/0!,
,,,,,,,,,,,,692.5,,#DIV/0!,
,,,,,,,,,,,,693,,#DIV/0!,
,,,,,,,,,,,,693.5,,#DIV/0!,
,,,,,,,,,,,,694,,#DIV/0!,
,,,,,,,,,,,,694.5,,#DIV/0!,
,,,,,,,,,,,,695,,#DIV/0!,
,,,,,,,,,,,,695.5,,#DIV/0!,
,,,,,,,,,,,,696,,#DIV/0!,
,,,,,,,,,,,,696.5,,#DIV/0!,
,,,,,,,,,,,,697,,#DIV/0!,
,,,,,,,,,,,,697.5,,#DIV/0!,
,,,,,,,,,,,,698,,#DIV/0!,
,,,,,,,,,,,,698.5,,#DIV/0!,
,,,,,,,,,,,,699,,#DIV/0!,
,,,,,,,,,,,,699.5,,#DIV/0!,
,,,,,,,,,,,,700,,#DIV/0!,
,,,,,,,,,,,,700.5,,#DIV/0!,
,,,,,,,,,,,,701,,#DIV/0!,
,,,,,,,,,,,,701.5,,#DIV/0!,
,,,,,,,,,,,,702,,#DIV/0!,
,,,,,,,,,,,,702.5,,#DIV/0!,
,,,,,,,,,,,,703,,#DIV/0!,
,,,,,,,,,,,,703.5,,#DIV/0!,
,,,,,,,,,,,,704,,#DIV/0!,
,,,,,,,,,,,,704.5,,#DIV/0!,
,,,,,,,,,,,,705,,#DIV/0!,
,,,,,,,,,,,,705.5,,#DIV/0!,
,,,,,,,,,,,,706,,#DIV/0!,
,,,,,,,,,,,,706.5,,#DIV/0!,
,,,,,,,,,,,,707,,#DIV/0!,
,,,,,,,,,,,,707.5,,#DIV/0!,
,,,,,,,,,,,,708,,#DIV/0!,
,,,,,,,,,,,,708.5,,#DIV/0!,
,,,,,,,,,,,,709,,#DIV/0!,
,,,,,,,,,,,,709.5,,#DIV/0!,
,,,,,,,,,,,,710,,#DIV/0!,
,,,,,,,,,,,,710.5,,#DIV/0!,
,,,,,,,,,,,,711,,#DIV/0!,
,,,,,,,,,,,,711.5,,#DIV/0!,
,,,,,,,,,,,,712,,#DIV/0!,
,,,,,,,,,,,,712.5,,#DIV/0!,
,,,,,,,,,,,,713,,#DIV/0!,
,,,,,,,,,,,,713.5,,#DIV/0!,
,,,,,,,,,,,,714,,#DIV/0!,
,,,,,,,,,,,,714.5,,#DIV/0!,
,,,,,,,,,,,,715,,#DIV/0!,
,,,,,,,,,,,,715.5,,#DIV/0!,
,,,,,,,,,,,,716,,#DIV/0!,
,,,,,,,,,,,,716.5,,#DIV/0!,
,,,,,,,,,,,,717,,#DIV/0!,
,,,,,,,,,,,,717.5,,#DIV/0!,
,,,,,,,,,,,,718,,#DIV/0!,
,,,,,,,,,,,,718.5,,#DIV/0!,
,,,,,,,,,,,,719,,#DIV/0!,
,,,,,,,,,,,,719.5,,#DIV/0!,
,,,,,,,,,,,,720,,#DIV/0!,
,,,,,,,,,,,,720.5,,#DIV/0!,
,,,,,,,,,,,,721,,#DIV/0!,
,,,,,,,,,,,,721.5,,#DIV/0!,
,,,,,,,,,,,,722,,#DIV/0!,
,,,,,,,,,,,,722.5,,#DIV/0!,
,,,,,,,,,,,,723,,#DIV/0!,
,,,,,,,,,,,,723.5,,#DIV/0!,
,,,,,,,,,,,,724,,#DIV/0!,
,,,,,,,,,,,,724.5,,#DIV/0!,
,,,,,,,,,,,,725,,#DIV/0!,
,,,,,,,,,,,,725.5,,#DIV/0!,
,,,,,,,,,,,,726,,#DIV/0!,
,,,,,,,,,,,,726.5,,#DIV/0!,
,,,,,,,,,,,,727,,#DIV/0!,
,,,,,,,,,,,,727.5,,#DIV/0!,
,,,,,,,,,,,,728,,#DIV/0!,
,,,,,,,,,,,,728.5,,#DIV/0!,
,,,,,,,,,,,,729,,#DIV/0!,
,,,,,,,,,,,,729.5,,#DIV/0!,
,,,,,,,,,,,,730,,#DIV/0!,
,,,,,,,,,,,,730.5,,#DIV/0!,
,,,,,,,,,,,,731,,#DIV/0!,
,,,,,,,,,,,,731.5,,#DIV/0!,
,,,,,,,,,,,,732,,#DIV/0!,
,,,,,,,,,,,,732.5,,#DIV/0!,
,,,,,,,,,,,,733,,#DIV/0!,
,,,,,,,,,,,,733.5,,#DIV/0!,
,,,,,,,,,,,,734,,#DIV/0!,
,,,,,,,,,,,,734.5,,#DIV/0!,
,,,,,,,,,,,,735,,#DIV/0!,
,,,,,,,,,,,,735.5,,#DIV/0!,
,,,,,,,,,,,,736,,#DIV/0!,
,,,,,,,,,,,,736.5,,#DIV/0!,
,,,,,,,,,,,,737,,#DIV/0!,
,,,,,,,,,,,,737.5,,#DIV/0!,
,,,,,,,,,,,,738,,#DIV/0!,
,,,,,,,,,,,,738.5,,#DIV/0!,
,,,,,,,,,,,,739,,#DIV/0!,
,,,,,,,,,,,,739.5,,#DIV/0!,
,,,,,,,,,,,,740,,#DIV/0!,
,,,,,,,,,,,,740.5,,#DIV/0!,
,,,,,,,,,,,,741,,#DIV/0!,
,,,,,,,,,,,,741.5,,#DIV/0!,
,,,,,,,,,,,,742,,#DIV/0!,
,,,,,,,,,,,,742.5,,#DIV/0!,
,,,,,,,,,,,,743,,#DIV/0!,
,,,,,,,,,,,,743.5,,#DIV/0!,
,,,,,,,,,,,,744,,#DIV/0!,
,,,,,,,,,,,,744.5,,#DIV/0!,
,,,,,,,,,,,,745,,#DIV/0!,
,,,,,,,,,,,,745.5,,#DIV/0!,
,,,,,,,,,,,,746,,#DIV/0!,
,,,,,,,,,,,,746.5,,#DIV/0!,
,,,,,,,,,,,,747,,#DIV/0!,
,,,,,,,,,,,,747.5,,#DIV/0!,
,,,,,,,,,,,,748,,#DIV/0!,
,,,,,,,,,,,,748.5,,#DIV/0!,
,,,,,,,,,,,,749,,#DIV/0!,
,,,,,,,,,,,,749.5,,#DIV/0!,
,,,,,,,,,,,,750,,#DIV/0!,
,,,,,,,,,,,,750.5,,#DIV/0!,
,,,,,,,,,,,,751,,#DIV/0!,
,,,,,,,,,,,,751.5,,#DIV/0!,
,,,,,,,,,,,,752,,#DIV/0!,
,,,,,,,,,,,,752.5,,#DIV/0!,
,,,,,,,,,,,,753,,#DIV/0!,
,,,,,,,,,,,,753.5,,#DIV/0!,
,,,,,,,,,,,,754,,#DIV/0!,
,,,,,,,,,,,,754.5,,#DIV/0!,
,,,,,,,,,,,,755,,#DIV/0!,
,,,,,,,,,,,,755.5,,#DIV/0!,
,,,,,,,,,,,,756,,#DIV/0!,
,,,,,,,,,,,,756.5,,#DIV/0!,
,,,,,,,,,,,,757,,#DIV/0!,
,,,,,,,,,,,,757.5,,#DIV/0!,
,,,,,,,,,,,,758,,#DIV/0!,
,,,,,,,,,,,,758.5,,#DIV/0!,
,,,,,,,,,,,,759,,#DIV/0!,
,,,,,,,,,,,,759.5,,#DIV/0!,
,,,,,,,,,,,,760,,#DIV/0!,
,,,,,,,,,,,,760.5,,#DIV/0!,
,,,,,,,,,,,,761,,#DIV/0!,
,,,,,,,,,,,,761.5,,#DIV/0!,
,,,,,,,,,,,,762,,#DIV/0!,
,,,,,,,,,,,,762.5,,#DIV/0!,
,,,,,,,,,,,,763,,#DIV/0!,
,,,,,,,,,,,,763.5,,#DIV/0!,
,,,,,,,,,,,,764,,#DIV/0!,
,,,,,,,,,,,,764.5,,#DIV/0!,
,,,,,,,,,,,,765,,#DIV/0!,
,,,,,,,,,,,,765.5,,#DIV/0!,
,,,,,,,,,,,,766,,#DIV/0!,
,,,,,,,,,,,,766.5,,#DIV/0!,
,,,,,,,,,,,,767,,#DIV/0!,
,,,,,,,,,,,,767.5,,#DIV/0!,
,,,,,,,,,,,,768,,#DIV/0!,
,,,,,,,,,,,,768.5,,#DIV/0!,
,,,,,,,,,,,,769,,#DIV/0!,
,,,,,,,,,,,,769.5,,#DIV/0!,
,,,,,,,,,,,,770,,#DIV/0!,
,,,,,,,,,,,,770.5,,#DIV/0!,
,,,,,,,,,,,,771,,#DIV/0!,
,,,,,,,,,,,,771.5,,#DIV/0!,
,,,,,,,,,,,,772,,#DIV/0!,
,,,,,,,,,,,,772.5,,#DIV/0!,
,,,,,,,,,,,,773,,#DIV/0!,
,,,,,,,,,,,,773.5,,#DIV/0!,
,,,,,,,,,,,,774,,#DIV/0!,
,,,,,,,,,,,,774.5,,#DIV/0!,
,,,,,,,,,,,,775,,#DIV/0!,
,,,,,,,,,,,,775.5,,#DIV/0!,
,,,,,,,,,,,,776,,#DIV/0!,
,,,,,,,,,,,,776.5,,#DIV/0!,
,,,,,,,,,,,,777,,#DIV/0!,
,,,,,,,,,,,,777.5,,#DIV/0!,
,,,,,,,,,,,,778,,#DIV/0!,
,,,,,,,,,,,,778.5,,#DIV/0!,
,,,,,,,,,,,,779,,#DIV/0!,
,,,,,,,,,,,,779.5,,#DIV/0!,
,,,,,,,,,,,,780,,#DIV/0!,
,,,,,,,,,,,,780.5,,#DIV/0!,
,,,,,,,,,,,,781,,#DIV/0!,
,,,,,,,,,,,,781.5,,#DIV/0!,
,,,,,,,,,,,,782,,#DIV/0!,
,,,,,,,,,,,,782.5,,#DIV/0!,
,,,,,,,,,,,,783,,#DIV/0!,
,,,,,,,,,,,,783.5,,#DIV/0!,
,,,,,,,,,,,,784,,#DIV/0!,
,,,,,,,,,,,,784.5,,#DIV/0!,
,,,,,,,,,,,,785,,#DIV/0!,
,,,,,,,,,,,,785.5,,#DIV/0!,
,,,,,,,,,,,,786,,#DIV/0!,
,,,,,,,,,,,,786.5,,#DIV/0!,
,,,,,,,,,,,,787,,#DIV/0!,
,,,,,,,,,,,,787.5,,#DIV/0!,
,,,,,,,,,,,,788,,#DIV/0!,
,,,,,,,,,,,,788.5,,#DIV/0!,
,,,,,,,,,,,,789,,#DIV/0!,
,,,,,,,,,,,,789.5,,#DIV/0!,
,,,,,,,,,,,,790,,#DIV/0!,
,,,,,,,,,,,,790.5,,#DIV/0!,
,,,,,,,,,,,,791,,#DIV/0!,
,,,,,,,,,,,,791.5,,#DIV/0!,
,,,,,,,,,,,,792,,#DIV/0!,
,,,,,,,,,,,,792.5,,#DIV/0!,
,,,,,,,,,,,,793,,#DIV/0!,
,,,,,,,,,,,,793.5,,#DIV/0!,
,,,,,,,,,,,,794,,#DIV/0!,
,,,,,,,,,,,,794.5,,#DIV/0!,
,,,,,,,,,,,,795,,#DIV/0!,
,,,,,,,,,,,,795.5,,#DIV/0!,
,,,,,,,,,,,,796,,#DIV/0!,
,,,,,,,,,,,,796.5,,#DIV/0!,
,,,,,,,,,,,,797,,#DIV/0!,
,,,,,,,,,,,,797.5,,#DIV/0!,
,,,,,,,,,,,,798,,#DIV/0!,
,,,,,,,,,,,,798.5,,#DIV/0!,
,,,,,,,,,,,,799,,#DIV/0!,
,,,,,,,,,,,,799.5,,#DIV/0!,
,,,,,,,,,,,,800,,#DIV/0!,
,,,,,,,,,,,,800.5,,#DIV/0!,
,,,,,,,,,,,,801,,#DIV/0!,
,,,,,,,,,,,,801.5,,#DIV/0!,
,,,,,,,,,,,,802,,#DIV/0!,
,,,,,,,,,,,,802.5,,#DIV/0!,
,,,,,,,,,,,,803,,#DIV/0!,
,,,,,,,,,,,,803.5,,#DIV/0!,
,,,,,,,,,,,,804,,#DIV/0!,
,,,,,,,,,,,,804.5,,#DIV/0!,
,,,,,,,,,,,,805,,#DIV/0!,
,,,,,,,,,,,,805.5,,#DIV/0!,
,,,,,,,,,,,,806,,#DIV/0!,
,,,,,,,,,,,,806.5,,#DIV/0!,
,,,,,,,,,,,,807,,#DIV/0!,
,,,,,,,,,,,,807.5,,#DIV/0!,
,,,,,,,,,,,,808,,#DIV/0!,
,,,,,,,,,,,,808.5,,#DIV/0!,
,,,,,,,,,,,,809,,#DIV/0!,
,,,,,,,,,,,,809.5,,#DIV/0!,
,,,,,,,,,,,,810,,#DIV/0!,
,,,,,,,,,,,,810.5,,#DIV/0!,
,,,,,,,,,,,,811,,#DIV/0!,
,,,,,,,,,,,,811.5,,#DIV/0!,
,,,,,,,,,,,,812,,#DIV/0!,
,,,,,,,,,,,,812.5,,#DIV/0!,
,,,,,,,,,,,,813,,#DIV/0!,
,,,,,,,,,,,,813.5,,#DIV/0!,
,,,,,,,,,,,,814,,#DIV/0!,
,,,,,,,,,,,,814.5,,#DIV/0!,
,,,,,,,,,,,,815,,#DIV/0!,
,,,,,,,,,,,,815.5,,#DIV/0!,
,,,,,,,,,,,,816,,#DIV/0!,
,,,,,,,,,,,,816.5,,#DIV/0!,
,,,,,,,,,,,,817,,#DIV/0!,
,,,,,,,,,,,,817.5,,#DIV/0!,
,,,,,,,,,,,,818,,#DIV/0!,
,,,,,,,,,,,,818.5,,#DIV/0!,
,,,,,,,,,,,,819,,#DIV/0!,
,,,,,,,,,,,,819.5,,#DIV/0!,
,,,,,,,,,,,,820,,#DIV/0!,
,,,,,,,,,,,,820.5,,#DIV/0!,
,,,,,,,,,,,,821,,#DIV/0!,
,,,,,,,,,,,,821.5,,#DIV/0!,
,,,,,,,,,,,,822,,#DIV/0!,
,,,,,,,,,,,,822.5,,#DIV/0!,
,,,,,,,,,,,,823,,#DIV/0!,
,,,,,,,,,,,,823.5,,#DIV/0!,
,,,,,,,,,,,,824,,#DIV/0!,
,,,,,,,,,,,,824.5,,#DIV/0!,
,,,,,,,,,,,,825,,#DIV/0!,
,,,,,,,,,,,,825.5,,#DIV/0!,
,,,,,,,,,,,,826,,#DIV/0!,
,,,,,,,,,,,,826.5,,#DIV/0!,
,,,,,,,,,,,,827,,#DIV/0!,
,,,,,,,,,,,,827.5,,#DIV/0!,
,,,,,,,,,,,,828,,#DIV/0!,
,,,,,,,,,,,,828.5,,#DIV/0!,
,,,,,,,,,,,,829,,#DIV/0!,
,,,,,,,,,,,,829.5,,#DIV/0!,
,,,,,,,,,,,,830,,#DIV/0!,
,,,,,,,,,,,,830.5,,#DIV/0!,
,,,,,,,,,,,,831,,#DIV/0!,
,,,,,,,,,,,,831.5,,#DIV/0!,
,,,,,,,,,,,,832,,#DIV/0!,
,,,,,,,,,,,,832.5,,#DIV/0!,
,,,,,,,,,,,,833,,#DIV/0!,
,,,,,,,,,,,,833.5,,#DIV/0!,
,,,,,,,,,,,,834,,#DIV/0!,
,,,,,,,,,,,,834.5,,#DIV/0!,
,,,,,,,,,,,,835,,#DIV/0!,
,,,,,,,,,,,,835.5,,#DIV/0!,
,,,,,,,,,,,,836,,#DIV/0!,
,,,,,,,,,,,,836.5,,#DIV/0!,
,,,,,,,,,,,,837,,#DIV/0!,
,,,,,,,,,,,,837.5,,#DIV/0!,
,,,,,,,,,,,,838,,#DIV/0!,
,,,,,,,,,,,,838.5,,#DIV/0!,
,,,,,,,,,,,,839,,#DIV/0!,
,,,,,,,,,,,,839.5,,#DIV/0!,
,,,,,,,,,,,,840,,#DIV/0!,
,,,,,,,,,,,,840.5,,#DIV/0!,
,,,,,,,,,,,,841,,#DIV/0!,
,,,,,,,,,,,,841.5,,#DIV/0!,
,,,,,,,,,,,,842,,#DIV/0!,
,,,,,,,,,,,,842.5,,#DIV/0!,
,,,,,,,,,,,,843,,#DIV/0!,
,,,,,,,,,,,,843.5,,#DIV/0!,
,,,,,,,,,,,,844,,#DIV/0!,
,,,,,,,,,,,,844.5,,#DIV/0!,
,,,,,,,,,,,,845,,#DIV/0!,
,,,,,,,,,,,,845.5,,#DIV/0!,
,,,,,,,,,,,,846,,#DIV/0!,
,,,,,,,,,,,,846.5,,#DIV/0!,
,,,,,,,,,,,,847,,#DIV/0!,
,,,,,,,,,,,,847.5,,#DIV/0!,
,,,,,,,,,,,,848,,#DIV/0!,
,,,,,,,,,,,,848.5,,#DIV/0!,
,,,,,,,,,,,,849,,#DIV/0!,
,,,,,,,,,,,,849.5,,#DIV/0!,
,,,,,,,,,,,,850,,#DIV/0!,
,,,,,,,,,,,,850.5,,#DIV/0!,
,,,,,,,,,,,,851,,#DIV/0!,
,,,,,,,,,,,,851.5,,#DIV/0!,
,,,,,,,,,,,,852,,#DIV/0!,
,,,,,,,,,,,,852.5,,#DIV/0!,
,,,,,,,,,,,,853,,#DIV/0!,
,,,,,,,,,,,,853.5,,#DIV/0!,
,,,,,,,,,,,,854,,#DIV/0!,
,,,,,,,,,,,,854.5,,#DIV/0!,
,,,,,,,,,,,,855,,#DIV/0!,
,,,,,,,,,,,,855.5,,#DIV/0!,
,,,,,,,,,,,,856,,#DIV/0!,
,,,,,,,,,,,,856.5,,#DIV/0!,
,,,,,,,,,,,,857,,#DIV/0!,
,,,,,,,,,,,,857.5,,#DIV/0!,
,,,,,,,,,,,,858,,#DIV/0!,
,,,,,,,,,,,,858.5,,#DIV/0!,
,,,,,,,,,,,,859,,#DIV/0!,
,,,,,,,,,,,,859.5,,#DIV/0!,
,,,,,,,,,,,,860,,#DIV/0!,
,,,,,,,,,,,,860.5,,#DIV/0!,
,,,,,,,,,,,,861,,#DIV/0!,
,,,,,,,,,,,,861.5,,#DIV/0!,
,,,,,,,,,,,,862,,#DIV/0!,
,,,,,,,,,,,,862.5,,#DIV/0!,
,,,,,,,,,,,,863,,#DIV/0!,
,,,,,,,,,,,,863.5,,#DIV/0!,
,,,,,,,,,,,,864,,#DIV/0!,
,,,,,,,,,,,,864.5,,#DIV/0!,
,,,,,,,,,,,,865,,#DIV/0!,
,,,,,,,,,,,,865.5,,#DIV/0!,
,,,,,,,,,,,,866,,#DIV/0!,
,,,,,,,,,,,,866.5,,#DIV/0!,
,,,,,,,,,,,,867,,#DIV/0!,
,,,,,,,,,,,,867.5,,#DIV/0!,
,,,,,,,,,,,,868,,#DIV/0!,
,,,,,,,,,,,,868.5,,#DIV/0!,
,,,,,,,,,,,,869,,#DIV/0!,
,,,,,,,,,,,,869.5,,#DIV/0!,
,,,,,,,,,,,,870,,#DIV/0!,
,,,,,,,,,,,,870.5,,#DIV/0!,
,,,,,,,,,,,,871,,#DIV/0!,
,,,,,,,,,,,,871.5,,#DIV/0!,
,,,,,,,,,,,,872,,#DIV/0!,
,,,,,,,,,,,,872.5,,#DIV/0!,
,,,,,,,,,,,,873,,#DIV/0!,
,,,,,,,,,,,,873.5,,#DIV/0!,
,,,,,,,,,,,,874,,#DIV/0!,
,,,,,,,,,,,,874.5,,#DIV/0!,
,,,,,,,,,,,,875,,#DIV/0!,
,,,,,,,,,,,,875.5,,#DIV/0!,
,,,,,,,,,,,,876,,#DIV/0!,
,,,,,,,,,,,,876.5,,#DIV/0!,
,,,,,,,,,,,,877,,#DIV/0!,
,,,,,,,,,,,,877.5,,#DIV/0!,
,,,,,,,,,,,,878,,#DIV/0!,
,,,,,,,,,,,,878.5,,#DIV/0!,
,,,,,,,,,,,,879,,#DIV/0!,
,,,,,,,,,,,,879.5,,#DIV/0!,
,,,,,,,,,,,,880,,#DIV/0!,
,,,,,,,,,,,,880.5,,#DIV/0!,
,,,,,,,,,,,,881,,#DIV/0!,
,,,,,,,,,,,,881.5,,#DIV/0!,
,,,,,,,,,,,,882,,#DIV/0!,
,,,,,,,,,,,,882.5,,#DIV/0!,
,,,,,,,,,,,,883,,#DIV/0!,
,,,,,,,,,,,,883.5,,#DIV/0!,
,,,,,,,,,,,,884,,#DIV/0!,
,,,,,,,,,,,,884.5,,#DIV/0!,
,,,,,,,,,,,,885,,#DIV/0!,
,,,,,,,,,,,,885.5,,#DIV/0!,
,,,,,,,,,,,,886,,#DIV/0!,
,,,,,,,,,,,,886.5,,#DIV/0!,
,,,,,,,,,,,,887,,#DIV/0!,
,,,,,,,,,,,,887.5,,#DIV/0!,
,,,,,,,,,,,,888,,#DIV/0!,
,,,,,,,,,,,,888.5,,#DIV/0!,
,,,,,,,,,,,,889,,#DIV/0!,
,,,,,,,,,,,,889.5,,#DIV/0!,
,,,,,,,,,,,,890,,#DIV/0!,
,,,,,,,,,,,,890.5,,#DIV/0!,
,,,,,,,,,,,,891,,#DIV/0!,
,,,,,,,,,,,,891.5,,#DIV/0!,
,,,,,,,,,,,,892,,#DIV/0!,
,,,,,,,,,,,,892.5,,#DIV/0!,
,,,,,,,,,,,,893,,#DIV/0!,
,,,,,,,,,,,,893.5,,#DIV/0!,
,,,,,,,,,,,,894,,#DIV/0!,
,,,,,,,,,,,,894.5,,#DIV/0!,
,,,,,,,,,,,,895,,#DIV/0!,
,,,,,,,,,,,,895.5,,#DIV/0!,
,,,,,,,,,,,,896,,#DIV/0!,
,,,,,,,,,,,,896.5,,#DIV/0!,
,,,,,,,,,,,,897,,#DIV/0!,
,,,,,,,,,,,,897.5,,#DIV/0!,
,,,,,,,,,,,,898,,#DIV/0!,
,,,,,,,,,,,,898.5,,#DIV/0!,
,,,,,,,,,,,,899,,#DIV/0!,
,,,,,,,,,,,,899.5,,#DIV/0!,
,,,,,,,,,,,,900,,#DIV/0!,